0,1.197814941
0.003333333,-0.161590576
0.006666667,-0.044677734
0.01,0.022903442
0.013333333,0.074920654
0.016666667,0.158055623
0.02,0.208251953
0.023333333,0.198455811
0.026666667,0.108250936
0.03,0.081695557
0.033333333,0.02398173
0.036666667,0.02549235
0.04,-0.06578064
0.043333333,-0.156570435
0.046666667,-0.238688151
0.05,-0.276870728
0.053333333,-0.285130819
0.056666667,-0.30657959
0.06,-0.275436401
0.063333333,-0.238454183
0.066666667,-0.083669027
0.07,-0.038131714
0.073333333,-0.029261271
0.076666667,-0.00100708
0.08,-0.006027222
0.083333333,-0.009791056
0.086666667,-0.009470622
0.09,0.023223877
0.093333333,-0.011789958
0.096666667,0.045781453
0.1,0.056762695
0.103333333,0.067982992
0.106666667,0.054163615
0.11,0.084243774
0.113333333,0.088775635
0.116666667,0.124613444
0.12,0.048202515
0.123333333,0.027699788
0.126666667,0.068827311
0.13,0.146759033
0.133333333,0.201568604
0.136666667,0.161214193
0.14,0.149002075
0.143333333,0.145523071
0.146666667,0.157831828
0.15,0.184631348
0.153333333,0.21421814
0.156666667,0.227259318
0.16,0.240600586
0.163333333,0.239659627
0.166666667,0.215911865
0.17,0.211257935
0.173333333,0.25100708
0.176666667,0.225738525
0.18,0.298217773
0.183333333,0.297368368
0.186666667,0.271072388
0.19,0.22593689
0.193333333,0.271799723
0.196666667,0.334477743
0.2,0.324859619
0.203333333,0.32850647
0.206666667,0.295501709
0.21,0.3462677
0.213333333,0.289703369
0.216666667,0.346476237
0.22,0.344100952
0.223333333,0.426605225
0.226666667,0.37491862
0.23,0.428451538
0.233333333,0.394668579
0.236666667,0.414683024
0.24,0.397247314
0.243333333,0.466018677
0.246666667,0.484298706
0.25,0.524902344
0.253333333,0.531956991
0.256666667,0.565048218
0.26,0.52166748
0.263333333,0.539815267
0.266666667,0.550282796
0.27,0.563171387
0.273333333,0.571746826
0.276666667,0.581034342
0.28,0.595291138
0.283333333,0.624516805
0.286666667,0.615239461
0.29,0.630172729
0.293333333,0.596750895
0.296666667,0.60975647
0.3,0.626678467
0.303333333,0.602630615
0.306666667,0.5597229
0.31,0.607452393
0.313333333,0.605122884
0.316666667,0.542322795
0.32,0.503890991
0.323333333,0.497609456
0.326666667,0.530822754
0.33,0.500930786
0.333333333,0.541559855
0.336666667,0.565007528
0.34,0.52192688
0.343333333,0.524302165
0.346666667,0.48991394
0.35,0.507736206
0.353333333,0.485168457
0.356666667,0.471974691
0.36,0.4740448
0.363333333,0.482004801
0.366666667,0.477956136
0.37,0.466079712
0.373333333,0.43939209
0.376666667,0.475479126
0.38,0.522491455
0.383333333,0.508092244
0.386666667,0.448023478
0.39,0.449905396
0.393333333,0.492940267
0.396666667,0.464406331
0.4,0.476608276
0.403333333,0.437678019
0.406666667,0.47567749
0.41,0.468795776
0.413333333,0.489217122
0.416666667,0.527699788
0.42,0.496536255
0.423333333,0.489273071
0.426666667,0.473648071
0.43,0.503646851
0.433333333,0.493011475
0.436666667,0.587320964
0.44,0.53553772
0.443333333,0.529764811
0.446666667,0.515853882
0.45,0.513687134
0.453333333,0.511891683
0.456666667,0.489634196
0.46,0.502731323
0.463333333,0.505701701
0.466666667,0.50239563
0.47,0.527572632
0.473333333,0.522165934
0.476666667,0.552103678
0.48,0.564712524
0.483333333,0.512924194
0.486666667,0.545801799
0.49,0.472961426
0.493333333,0.53276062
0.496666667,0.509394328
0.5,0.537872314
0.503333333,0.508839925
0.506666667,0.487467448
0.51,0.506225586
0.513333333,0.579600016
0.516666667,0.574315389
0.52,0.574417114
0.523333333,0.532002767
0.526666667,0.531514486
0.53,0.635665894
0.533333333,0.572077433
0.536666667,0.616953532
0.54,0.554626465
0.543333333,0.598495483
0.546666667,0.561304728
0.55,0.522460938
0.553333333,0.561599731
0.556666667,0.583902995
0.56,0.559539795
0.563333333,0.575083415
0.566666667,0.559285482
0.57,0.528686523
0.573333333,0.550262451
0.576666667,0.567214966
0.58,0.535858154
0.583333333,0.5859375
0.586666667,0.559916178
0.59,0.542663574
0.593333333,0.550532023
0.596666667,0.540771484
0.6,0.552749634
0.603333333,0.511952718
0.606666667,0.583953857
0.61,0.562866211
0.613333333,0.54015096
0.616666667,0.554631551
0.62,0.575637817
0.623333333,0.545389811
0.626666667,0.594538371
0.63,0.552444458
0.633333333,0.599110921
0.636666667,0.528925578
0.64,0.603744507
0.643333333,0.5918986
0.646666667,0.583241781
0.65,0.583724976
0.653333333,0.544667562
0.656666667,0.610565186
0.66,0.603439331
0.663333333,0.572138468
0.666666667,0.58555603
0.67,0.547470093
0.673333333,0.592992147
0.676666667,0.537780762
0.68,0.528442383
0.683333333,0.558268229
0.686666667,0.564915975
0.69,0.572525024
0.693333333,0.574106852
0.696666667,0.584457397
0.7,0.569992065
0.703333333,0.557250977
0.706666667,0.519734701
0.71,0.495605469
0.713333333,0.513036092
0.716666667,0.533548991
0.72,0.497955322
0.723333333,0.538533529
0.726666667,0.543095907
0.73,0.562896729
0.733333333,0.552800496
0.736666667,0.492121379
0.74,0.451950073
0.743333333,0.495666504
0.746666667,0.493896484
0.75,0.499725342
0.753333333,0.502466838
0.756666667,0.501815796
0.76,0.518081665
0.763333333,0.542215983
0.766666667,0.599314372
0.77,0.540252686
0.773333333,0.559504191
0.776666667,0.547780355
0.78,0.608764648
0.783333333,0.58400472
0.786666667,0.534688314
0.79,0.513259888
0.793333333,0.634938558
0.796666667,0.648330688
0.8,0.608673096
0.803333333,0.564987183
0.806666667,0.59161377
0.81,0.576385498
0.813333333,0.579030355
0.816666667,0.602544149
0.82,0.616638184
0.823333333,0.610936483
0.826666667,0.579081217
0.83,0.564453125
0.833333333,0.607045492
0.836666667,0.578582764
0.84,0.581375122
0.843333333,0.568506877
0.846666667,0.562708537
0.85,0.608139038
0.853333333,0.63663737
0.856666667,0.596984863
0.86,0.579498291
0.863333333,0.60488383
0.866666667,0.554656982
0.87,0.445297241
0.873333333,0.499938965
0.876666667,0.543095907
0.88,0.665878296
0.883333333,0.644302368
0.886666667,0.621332804
0.89,0.610855103
0.893333333,0.608210246
0.896666667,0.575068156
0.9,0.616760254
0.903333333,0.568450928
0.906666667,0.577936808
0.91,0.595336914
0.913333333,0.560394287
0.916666667,0.562667847
0.92,0.534423828
0.923333333,0.511494954
0.926666667,0.554595947
0.93,0.53112793
0.933333333,0.546773275
0.936666667,0.498662313
0.94,0.513687134
0.943333333,0.494094849
0.946666667,0.541707357
0.95,0.534057617
0.953333333,0.492284139
0.956666667,0.490030924
0.96,0.484313965
0.963333333,0.547780355
0.966666667,0.542653402
0.97,0.553527832
0.973333333,0.510838826
0.976666667,0.503718058
0.98,0.572814941
0.983333333,0.49949646
0.986666667,0.598587036
0.99,0.629043579
0.993333333,0.684967041
0.996666667,0.705769857
1,0.813674927
1.003333333,0.844523112
1.006666667,0.792811076
1.01,0.715118408
1.013333333,0.713785807
1.016666667,0.604985555
1.02,0.543869019
1.023333333,0.392364502
1.026666667,0.351572673
1.03,0.249420166
1.033333333,0.24983724
1.036666667,0.222188314
1.04,0.215011597
1.043333333,0.225367228
1.046666667,0.310434977
1.05,0.371704102
1.053333333,0.391916911
1.056666667,0.421646118
1.06,0.441589355
1.063333333,0.480545044
1.066666667,0.489069621
1.07,0.472305298
1.073333333,0.4400177
1.076666667,0.469360352
1.08,0.480407715
1.083333333,0.487391154
1.086666667,0.500793457
1.09,0.502655029
1.093333333,0.486750285
1.096666667,0.465677897
1.1,0.451660156
1.103333333,0.503631592
1.106666667,0.498494466
1.11,0.451553345
1.113333333,0.506047567
1.116666667,0.506108602
1.12,0.495376587
1.123333333,0.469411214
1.126666667,0.509256999
1.13,0.551559448
1.133333333,0.539220174
1.136666667,0.474950155
1.14,0.509887695
1.143333333,0.546829224
1.146666667,0.551396688
1.15,0.519638062
1.153333333,0.486562093
1.156666667,0.48483785
1.16,0.471359253
1.163333333,0.52394104
1.166666667,0.497817993
1.17,0.498382568
1.173333333,0.489847819
1.176666667,0.476552327
1.18,0.469406128
1.183333333,0.495859782
1.186666667,0.520670573
1.19,0.499572754
1.193333333,0.504669189
1.196666667,0.523951213
1.2,0.530776978
1.203333333,0.534851074
1.206666667,0.544708252
1.21,0.595123291
1.213333333,0.595738729
1.216666667,0.597432454
1.22,0.60395813
1.223333333,0.56284078
1.226666667,0.621612549
1.23,0.614456177
1.233333333,0.655848185
1.236666667,0.640823364
1.24,0.59197998
1.243333333,0.626490275
1.246666667,0.665934245
1.25,0.685882568
1.253333333,0.675542196
1.256666667,0.669296265
1.26,0.656829834
1.263333333,0.67447408
1.266666667,0.667444865
1.27,0.667175293
1.273333333,0.644460042
1.276666667,0.640436808
1.28,0.641403198
1.283333333,0.646438599
1.286666667,0.603368123
1.29,0.604629517
1.293333333,0.654378255
1.296666667,0.636749268
1.3,0.610809326
1.303333333,0.598932902
1.306666667,0.566223145
1.31,0.553543091
1.313333333,0.54208374
1.316666667,0.53876241
1.32,0.495513916
1.323333333,0.442525228
1.326666667,0.395039876
1.33,0.437561035
1.333333333,0.405883789
1.336666667,0.397705078
1.34,0.399551392
1.343333333,0.416046143
1.346666667,0.443237305
1.35,0.403900146
1.353333333,0.389378866
1.356666667,0.390619914
1.36,0.400161743
1.363333333,0.469914754
1.366666667,0.450007121
1.37,0.429550171
1.373333333,0.397003174
1.376666667,0.379252116
1.38,0.438980103
1.383333333,0.3977712
1.386666667,0.439463298
1.39,0.391113281
1.393333333,0.438878377
1.396666667,0.428212484
1.4,0.420074463
1.403333333,0.400655111
1.406666667,0.408747355
1.41,0.414871216
1.413333333,0.418736776
1.416666667,0.450007121
1.42,0.413452148
1.423333333,0.380320231
1.426666667,0.404571533
1.43,0.419967651
1.433333333,0.442810059
1.436666667,0.413853963
1.44,0.374984741
1.443333333,0.387878418
1.446666667,0.441563924
1.45,0.473632812
1.453333333,0.431925456
1.456666667,0.371353149
1.46,0.399215698
1.463333333,0.415445964
1.466666667,0.413106283
1.47,0.33454895
1.473333333,0.361236572
1.476666667,0.308904012
1.48,0.370452881
1.483333333,0.369822184
1.486666667,0.353602091
1.49,0.362945557
1.493333333,0.351069132
1.496666667,0.412867228
1.5,0.380706787
1.503333333,0.39175415
1.506666667,0.414087931
1.51,0.421401978
1.513333333,0.402257284
1.516666667,0.400009155
1.52,0.361862183
1.523333333,0.341049194
1.526666667,0.394922892
1.53,0.415618896
1.533333333,0.39255778
1.536666667,0.358062744
1.54,0.364837646
1.543333333,0.367986043
1.546666667,0.364064535
1.55,0.357971191
1.553333333,0.356923421
1.556666667,0.373087565
1.56,0.360458374
1.563333333,0.396296183
1.566666667,0.373509725
1.57,0.316513062
1.573333333,0.333465576
1.576666667,0.315526326
1.58,0.352005005
1.583333333,0.352350871
1.586666667,0.351852417
1.59,0.333862305
1.593333333,0.323857625
1.596666667,0.331380208
1.6,0.389785767
1.603333333,0.322799683
1.606666667,0.337493896
1.61,0.373901367
1.613333333,0.35706075
1.616666667,0.378850301
1.62,0.30406189
1.623333333,0.334960938
1.626666667,0.413391113
1.63,0.396057129
1.633333333,0.397338867
1.636666667,0.344975789
1.64,0.305160522
1.643333333,0.3743337
1.646666667,0.397023519
1.65,0.376052856
1.653333333,0.404744466
1.656666667,0.348932902
1.66,0.357437134
1.663333333,0.402501424
1.666666667,0.382868449
1.67,0.378250122
1.673333333,0.361083984
1.676666667,0.351511637
1.68,0.339477539
1.683333333,0.387573242
1.686666667,0.393651326
1.69,0.381729126
1.693333333,0.384516398
1.696666667,0.359853109
1.7,0.36491394
1.703333333,0.41805013
1.706666667,0.411132812
1.71,0.369064331
1.713333333,0.407272339
1.716666667,0.432510376
1.72,0.3646698
1.723333333,0.36134847
1.726666667,0.37638855
1.73,0.395828247
1.733333333,0.416666667
1.736666667,0.416585286
1.74,0.386734009
1.743333333,0.357386271
1.746666667,0.386032104
1.75,0.466156006
1.753333333,0.390991211
1.756666667,0.399815877
1.76,0.331878662
1.763333333,0.429438273
1.766666667,0.384928385
1.77,0.340774536
1.773333333,0.350916545
1.776666667,0.369842529
1.78,0.410140991
1.783333333,0.340220133
1.786666667,0.389261882
1.79,0.396331787
1.793333333,0.389389038
1.796666667,0.39205424
1.8,0.445327759
1.803333333,0.402064006
1.806666667,0.383611043
1.81,0.347915649
1.813333333,0.380101522
1.816666667,0.405527751
1.82,0.426452637
1.823333333,0.39449056
1.826666667,0.429214478
1.83,0.479064941
1.833333333,0.444793701
1.836666667,0.422739665
1.84,0.383880615
1.843333333,0.361302694
1.846666667,0.378199259
1.85,0.39680481
1.853333333,0.424397786
1.856666667,0.376734416
1.86,0.36239624
1.863333333,0.436141968
1.866666667,0.411936442
1.87,0.357971191
1.873333333,0.36092631
1.876666667,0.393371582
1.88,0.397079468
1.883333333,0.411071777
1.886666667,0.389984131
1.89,0.398468018
1.893333333,0.374898275
1.896666667,0.332397461
1.9,0.426864624
1.903333333,0.423253377
1.906666667,0.401372274
1.91,0.411483765
1.913333333,0.400726318
1.916666667,0.430297852
1.92,0.424133301
1.923333333,0.418467204
1.926666667,0.518030802
1.93,0.560546875
1.933333333,0.668233236
1.936666667,0.638427734
1.94,0.705078125
1.943333333,0.694366455
1.946666667,0.720769246
1.95,0.614089966
1.953333333,0.535324097
1.956666667,0.427861532
1.96,0.33241272
1.963333333,0.274693807
1.966666667,0.229415894
1.97,0.183868408
1.973333333,0.107899984
1.976666667,0.094121297
1.98,0.12727356
1.983333333,0.206273397
1.986666667,0.185267131
1.99,0.213409424
1.993333333,0.297251383
1.996666667,0.327234904
2,0.32043457
2.003333333,0.316645304
2.006666667,0.344802856
2.01,0.370422363
2.013333333,0.375869751
2.016666667,0.360107422
2.02,0.368026733
2.023333333,0.389973958
2.026666667,0.363596598
2.03,0.396270752
2.033333333,0.440495809
2.036666667,0.4159139
2.04,0.424316406
2.043333333,0.412119548
2.046666667,0.397979736
2.05,0.462265015
2.053333333,0.446050008
2.056666667,0.408411662
2.06,0.375732422
2.063333333,0.450439453
2.066666667,0.419387817
2.07,0.421234131
2.073333333,0.422439575
2.076666667,0.42612203
2.08,0.461730957
2.083333333,0.403722127
2.086666667,0.393066406
2.09,0.389160156
2.093333333,0.426635742
2.096666667,0.425776164
2.1,0.439224243
2.103333333,0.420227051
2.106666667,0.442911784
2.11,0.405059814
2.113333333,0.431844076
2.116666667,0.451711019
2.12,0.45135498
2.123333333,0.424209595
2.126666667,0.437230428
2.13,0.465530396
2.133333333,0.454533895
2.136666667,0.457672119
2.14,0.496017456
2.143333333,0.481892904
2.146666667,0.481180827
2.15,0.502471924
2.153333333,0.463694255
2.156666667,0.514531453
2.16,0.492889404
2.163333333,0.526438395
2.166666667,0.571314494
2.17,0.579772949
2.173333333,0.630167643
2.176666667,0.552769979
2.18,0.563995361
2.183333333,0.546620687
2.186666667,0.55573527
2.19,0.523651123
2.193333333,0.604497274
2.196666667,0.629196167
2.2,0.639648438
2.203333333,0.602818807
2.206666667,0.590459188
2.21,0.608123779
2.213333333,0.597935994
2.216666667,0.580164591
2.22,0.557754517
2.223333333,0.573888143
2.226666667,0.54850769
2.23,0.566390991
2.233333333,0.562082926
2.236666667,0.509668986
2.24,0.489013672
2.243333333,0.477874756
2.246666667,0.453267415
2.25,0.424194336
2.253333333,0.434656779
2.256666667,0.461791992
2.26,0.429885864
2.263333333,0.411794027
2.266666667,0.398813883
2.27,0.43737793
2.273333333,0.33627828
2.276666667,0.386494954
2.28,0.375610352
2.283333333,0.349477132
2.286666667,0.37159729
2.29,0.342758179
2.293333333,0.348098755
2.296666667,0.382710775
2.3,0.419311523
2.303333333,0.407409668
2.306666667,0.357070923
2.31,0.367095947
2.313333333,0.352915446
2.316666667,0.386581421
2.32,0.372543335
2.323333333,0.351008097
2.326666667,0.364725749
2.33,0.425735474
2.333333333,0.386428833
2.336666667,0.37806193
2.34,0.355545044
2.343333333,0.402943929
2.346666667,0.369725545
2.35,0.391693115
2.353333333,0.405415853
2.356666667,0.321222941
2.36,0.307006836
2.363333333,0.321965535
2.366666667,0.305811564
2.37,0.344085693
2.373333333,0.347061157
2.376666667,0.317459106
2.38,0.336959839
2.383333333,0.322469076
2.386666667,0.320210775
2.39,0.393447876
2.393333333,0.365809123
2.396666667,0.376419067
2.4,0.31867981
2.403333333,0.319636027
2.406666667,0.255574544
2.41,0.297698975
2.413333333,0.341974894
2.416666667,0.351969401
2.42,0.339385986
2.423333333,0.318552653
2.426666667,0.365478516
2.43,0.329162598
2.433333333,0.350062052
2.436666667,0.320576986
2.44,0.316925049
2.443333333,0.316167196
2.446666667,0.288172404
2.45,0.300369263
2.453333333,0.308242798
2.456666667,0.317779541
2.46,0.293518066
2.463333333,0.289520264
2.466666667,0.374679565
2.47,0.357269287
2.473333333,0.307133993
2.476666667,0.316055298
2.48,0.336074829
2.483333333,0.341873169
2.486666667,0.309814453
2.49,0.309768677
2.493333333,0.285227458
2.496666667,0.239735921
2.5,0.260162354
2.503333333,0.259368896
2.506666667,0.209523519
2.51,0.295089722
2.513333333,0.260045369
2.516666667,0.316899618
2.52,0.310699463
2.523333333,0.301864624
2.526666667,0.245259603
2.53,0.289108276
2.533333333,0.270614624
2.536666667,0.296488444
2.54,0.292266846
2.543333333,0.273747762
2.546666667,0.283543905
2.55,0.311508179
2.553333333,0.314509074
2.556666667,0.233495076
2.56,0.240386963
2.563333333,0.274490356
2.566666667,0.326970418
2.57,0.298233032
2.573333333,0.317769368
2.576666667,0.275085449
2.58,0.284133911
2.583333333,0.292205811
2.586666667,0.322280884
2.59,0.327087402
2.593333333,0.323944092
2.596666667,0.280726115
2.6,0.314712524
2.603333333,0.349624634
2.606666667,0.339472453
2.61,0.361984253
2.613333333,0.357035319
2.616666667,0.373535156
2.62,0.341323853
2.623333333,0.353510539
2.626666667,0.30460612
2.63,0.361633301
2.633333333,0.370635986
2.636666667,0.362091064
2.64,0.341674805
2.643333333,0.344731649
2.646666667,0.270390828
2.65,0.250930786
2.653333333,0.265848796
2.656666667,0.291386922
2.66,0.311798096
2.663333333,0.259465535
2.666666667,0.30263265
2.67,0.32951355
2.673333333,0.311864217
2.676666667,0.280751546
2.68,0.265777588
2.683333333,0.334421794
2.686666667,0.2718455
2.69,0.308685303
2.693333333,0.334996541
2.696666667,0.358347575
2.7,0.382843018
2.703333333,0.334574382
2.706666667,0.284372965
2.71,0.280487061
2.713333333,0.331726074
2.716666667,0.357691447
2.72,0.354415894
2.723333333,0.317901611
2.726666667,0.339452108
2.73,0.325866699
2.733333333,0.343678792
2.736666667,0.329325358
2.74,0.342529297
2.743333333,0.341303507
2.746666667,0.375264486
2.75,0.340652466
2.753333333,0.349700928
2.756666667,0.323735555
2.76,0.366714478
2.763333333,0.329859416
2.766666667,0.380503337
2.77,0.350250244
2.773333333,0.373977661
2.776666667,0.368082682
2.78,0.381820679
2.783333333,0.346323649
2.786666667,0.377873739
2.79,0.310211182
2.793333333,0.294418335
2.796666667,0.26361084
2.8,0.328903198
2.803333333,0.327519735
2.806666667,0.293273926
2.81,0.269287109
2.813333333,0.26210022
2.816666667,0.299835205
2.82,0.289810181
2.823333333,0.287902832
2.826666667,0.315048218
2.83,0.332107544
2.833333333,0.277709961
2.836666667,0.287999471
2.84,0.273300171
2.843333333,0.305709839
2.846666667,0.291748047
2.85,0.309677124
2.853333333,0.323511759
2.856666667,0.366673787
2.86,0.305236816
2.863333333,0.248804728
2.866666667,0.271275838
2.87,0.302459717
2.873333333,0.326721191
2.876666667,0.328740438
2.88,0.461135864
2.883333333,0.488204956
2.886666667,0.537806193
2.89,0.502670288
2.893333333,0.488886515
2.896666667,0.436787923
2.9,0.392684937
2.903333333,0.358495076
2.906666667,0.297444661
2.91,0.176223755
2.913333333,0.12713623
2.916666667,0.083796183
2.92,0.021347046
2.923333333,-0.013432821
2.926666667,-0.003295898
2.93,0.008850098
2.933333333,0.090357463
2.936666667,0.100296021
2.94,0.144363403
2.943333333,0.271158854
2.946666667,0.283950806
2.95,0.290908813
2.953333333,0.264836629
2.956666667,0.321172078
2.96,0.281265259
2.963333333,0.293319702
2.966666667,0.270843506
2.97,0.306304932
2.973333333,0.341369629
2.976666667,0.325302124
2.98,0.385131836
2.983333333,0.393600464
2.986666667,0.32337443
2.99,0.337432861
2.993333333,0.317667643
2.996666667,0.350118001
3,0.358200073
3.003333333,0.37697347
3.006666667,0.369562785
3.01,0.351135254
3.013333333,0.331202189
3.016666667,0.367457072
3.02,0.313491821
3.023333333,0.337860107
3.026666667,0.320785522
3.03,0.323013306
3.033333333,0.329055786
3.036666667,0.362894694
3.04,0.317474365
3.043333333,0.309646606
3.046666667,0.358291626
3.05,0.355377197
3.053333333,0.408040365
3.056666667,0.360285441
3.06,0.321640015
3.063333333,0.343032837
3.066666667,0.421905518
3.07,0.410720825
3.073333333,0.389597575
3.076666667,0.411783854
3.08,0.451965332
3.083333333,0.452041626
3.086666667,0.427403768
3.09,0.440414429
3.093333333,0.463770549
3.096666667,0.413213094
3.1,0.445632935
3.103333333,0.479136149
3.106666667,0.490524292
3.11,0.477050781
3.113333333,0.500244141
3.116666667,0.50587972
3.12,0.528762817
3.123333333,0.524815877
3.126666667,0.483896891
3.13,0.493103027
3.133333333,0.480397542
3.136666667,0.465576172
3.14,0.476547241
3.143333333,0.607121785
3.146666667,0.514506022
3.15,0.522842407
3.153333333,0.474217733
3.156666667,0.516489665
3.16,0.542190552
3.163333333,0.483261108
3.166666667,0.486373901
3.17,0.50881958
3.173333333,0.49822998
3.176666667,0.451522827
3.18,0.447158813
3.183333333,0.475260417
3.186666667,0.448527018
3.19,0.43132019
3.193333333,0.396672567
3.196666667,0.391281128
3.2,0.367126465
3.203333333,0.364568075
3.206666667,0.317448934
3.21,0.29876709
3.213333333,0.27831014
3.216666667,0.271148682
3.22,0.262710571
3.223333333,0.220163981
3.226666667,0.206380208
3.23,0.181793213
3.233333333,0.185394287
3.236666667,0.261657715
3.24,0.263961792
3.243333333,0.230560303
3.246666667,0.226674398
3.25,0.216293335
3.253333333,0.171335856
3.256666667,0.243021647
3.26,0.234039307
3.263333333,0.244532267
3.266666667,0.270360311
3.27,0.224441528
3.273333333,0.202229818
3.276666667,0.224568685
3.28,0.206619263
3.283333333,0.196914673
3.286666667,0.1659139
3.29,0.24659729
3.293333333,0.249989827
3.296666667,0.21077474
3.3,0.211257935
3.303333333,0.229192098
3.306666667,0.235331217
3.31,0.255020142
3.313333333,0.242823283
3.316666667,0.22084554
3.32,0.240859985
3.323333333,0.274998983
3.326666667,0.266708374
3.33,0.27394104
3.333333333,0.238545736
3.336666667,0.286092122
3.34,0.271377563
3.343333333,0.248418172
3.346666667,0.236796061
3.35,0.253829956
3.353333333,0.247899373
3.356666667,0.274200439
3.36,0.246109009
3.363333333,0.266586304
3.366666667,0.255788167
3.37,0.245895386
3.373333333,0.243667603
3.376666667,0.227930705
3.38,0.266799927
3.383333333,0.277913411
3.386666667,0.290054321
3.39,0.281295776
3.393333333,0.27196757
3.396666667,0.284159342
3.4,0.302505493
3.403333333,0.293614705
3.406666667,0.294698079
3.41,0.338287354
3.413333333,0.308751424
3.416666667,0.276056925
3.42,0.19078064
3.423333333,0.21500651
3.426666667,0.273401896
3.43,0.252716064
3.433333333,0.255025228
3.436666667,0.301472982
3.44,0.259262085
3.443333333,0.256317139
3.446666667,0.253219604
3.45,0.21194458
3.453333333,0.15973409
3.456666667,0.259648641
3.46,0.2240448
3.463333333,0.197921753
3.466666667,0.204645793
3.47,0.224380493
3.473333333,0.250956217
3.476666667,0.250447591
3.48,0.264816284
3.483333333,0.237833659
3.486666667,0.221867879
3.49,0.197921753
3.493333333,0.214019775
3.496666667,0.227050781
3.5,0.235748291
3.503333333,0.266515096
3.506666667,0.225799561
3.51,0.19744873
3.513333333,0.23932902
3.516666667,0.22626241
3.52,0.235198975
3.523333333,0.286509196
3.526666667,0.314203898
3.53,0.261413574
3.533333333,0.276845296
3.536666667,0.289316813
3.54,0.268676758
3.543333333,0.220408122
3.546666667,0.310348511
3.55,0.275039673
3.553333333,0.276301066
3.556666667,0.279129028
3.56,0.208145142
3.563333333,0.247111003
3.566666667,0.271148682
3.57,0.227325439
3.573333333,0.220357259
3.576666667,0.244908651
3.58,0.212127686
3.583333333,0.208409627
3.586666667,0.229365031
3.59,0.192108154
3.593333333,0.194966634
3.596666667,0.22354126
3.6,0.181121826
3.603333333,0.270797729
3.606666667,0.260386149
3.61,0.161499023
3.613333333,0.19787089
3.616666667,0.182825724
3.62,0.191268921
3.623333333,0.243143717
3.626666667,0.268783569
3.63,0.212524414
3.633333333,0.238978068
3.636666667,0.228607178
3.64,0.265060425
3.643333333,0.228739421
3.646666667,0.215459188
3.65,0.208435059
3.653333333,0.228006999
3.656666667,0.220433553
3.66,0.211471558
3.663333333,0.146677653
3.666666667,0.228246053
3.67,0.239639282
3.673333333,0.188232422
3.676666667,0.212966919
3.68,0.249664307
3.683333333,0.244903564
3.686666667,0.230356852
3.69,0.202468872
3.693333333,0.25747172
3.696666667,0.234614054
3.7,0.22354126
3.703333333,0.188593547
3.706666667,0.195073446
3.71,0.202636719
3.713333333,0.217336019
3.716666667,0.200398763
3.72,0.194671631
3.723333333,0.205535889
3.726666667,0.208007813
3.73,0.203781128
3.733333333,0.236409505
3.736666667,0.212778727
3.74,0.237228394
3.743333333,0.214314779
3.746666667,0.217992147
3.75,0.188446045
3.753333333,0.118606567
3.756666667,0.107213338
3.76,0.128189087
3.763333333,0.090682983
3.766666667,0.143890381
3.77,0.144882202
3.773333333,0.147399902
3.776666667,0.095291138
3.78,0.081314087
3.783333333,0.075429281
3.786666667,0.148808797
3.79,0.111862183
3.793333333,0.092697144
3.796666667,0.085622152
3.8,0.117797852
3.803333333,0.104777018
3.806666667,0.131281535
3.81,0.040084839
3.813333333,0.066223145
3.816666667,0.089263916
3.82,0.090240479
3.823333333,0.088205973
3.826666667,0.152862549
3.83,0.076141357
3.833333333,0.038782756
3.836666667,0.049438477
3.84,0.131576538
3.843333333,0.150126139
3.846666667,0.201222738
3.85,0.271148682
3.853333333,0.269582113
3.856666667,0.314219157
3.86,0.294906616
3.863333333,0.232477824
3.866666667,0.204798381
3.87,0.151733398
3.873333333,0.139923096
3.876666667,0.116556803
3.88,-0.04536438
3.883333333,-0.096969604
3.886666667,-0.194234212
3.89,-0.195999146
3.893333333,-0.181503296
3.896666667,-0.137217204
3.9,-0.076675415
3.903333333,0.020238241
3.906666667,0.055409749
3.91,0.112503052
3.913333333,0.130218506
3.916666667,0.126139323
3.92,0.093063354
3.923333333,0.094019572
3.926666667,0.096232096
3.93,0.118637085
3.933333333,0.123519897
3.936666667,0.158284505
3.94,0.176971436
3.943333333,0.129302979
3.946666667,0.142232259
3.95,0.14175415
3.953333333,0.14847819
3.956666667,0.164698283
3.96,0.186813354
3.963333333,0.222056071
3.966666667,0.134429932
3.97,0.151672363
3.973333333,0.216145833
3.976666667,0.176335653
3.98,0.216567993
3.983333333,0.247065226
3.986666667,0.247309367
3.99,0.257644653
3.993333333,0.226882935
3.996666667,0.217269897
4,0.20866394
4.003333333,0.228312174
4.006666667,0.236195882
4.01,0.217803955
4.013333333,0.238759359
4.016666667,0.268274943
4.02,0.260635376
4.023333333,0.270136515
4.026666667,0.271677653
4.03,0.281280518
4.033333333,0.279515584
4.036666667,0.282455444
4.04,0.257461548
4.043333333,0.288157145
4.046666667,0.342631022
4.05,0.362548828
4.053333333,0.3508962
4.056666667,0.317784627
4.06,0.321853638
4.063333333,0.30809021
4.066666667,0.320460002
4.07,0.35319519
4.073333333,0.383646647
4.076666667,0.409723918
4.08,0.398086548
4.083333333,0.398635864
4.086666667,0.417775472
4.09,0.416885376
4.093333333,0.383178711
4.096666667,0.358037313
4.1,0.375213623
4.103333333,0.377568563
4.106666667,0.459218343
4.11,0.385116577
4.113333333,0.431172689
4.116666667,0.462595622
4.12,0.439285278
4.123333333,0.488677979
4.126666667,0.444992065
4.13,0.487976074
4.133333333,0.452092489
4.136666667,0.448933919
4.14,0.486053467
4.143333333,0.444285075
4.146666667,0.470967611
4.15,0.482788086
4.153333333,0.443049113
4.156666667,0.426193237
4.16,0.45602417
4.163333333,0.418538411
4.166666667,0.401433309
4.17,0.336044312
4.173333333,0.340011597
4.176666667,0.325322469
4.18,0.308990479
4.183333333,0.268961589
4.186666667,0.241770426
4.19,0.311325073
4.193333333,0.278050741
4.196666667,0.287180583
4.2,0.277175903
4.203333333,0.241327922
4.206666667,0.236409505
4.21,0.250244141
4.213333333,0.205729167
4.216666667,0.252634684
4.22,0.175994873
4.223333333,0.215764364
4.226666667,0.217285156
4.23,0.230438232
4.233333333,0.269419352
4.236666667,0.235102336
4.24,0.255722046
4.243333333,0.280237834
4.246666667,0.278711955
4.25,0.296783447
4.253333333,0.278335571
4.256666667,0.315867106
4.26,0.278167725
4.263333333,0.30305481
4.266666667,0.318425496
4.27,0.27696228
4.273333333,0.227050781
4.276666667,0.263656616
4.28,0.2993927
4.283333333,0.299402873
4.286666667,0.291712443
4.29,0.277023315
4.293333333,0.251134237
4.296666667,0.297765096
4.3,0.271377563
4.303333333,0.293507894
4.306666667,0.292475382
4.31,0.281005859
4.313333333,0.281082153
4.316666667,0.268783569
4.32,0.216369629
4.323333333,0.258295695
4.326666667,0.239679972
4.33,0.268920898
4.333333333,0.304412842
4.336666667,0.326802572
4.34,0.298690796
4.343333333,0.26137797
4.346666667,0.203893026
4.35,0.23147583
4.353333333,0.333521525
4.356666667,0.263880412
4.36,0.284881592
4.363333333,0.29892985
4.366666667,0.262908936
4.37,0.236373901
4.373333333,0.205413818
4.376666667,0.258611043
4.38,0.239059448
4.383333333,0.196151733
4.386666667,0.203562419
4.39,0.191207886
4.393333333,0.211130778
4.396666667,0.269058228
4.4,0.238876343
4.403333333,0.236872355
4.406666667,0.21047465
4.41,0.237380981
4.413333333,0.247344971
4.416666667,0.214513143
4.42,0.235839844
4.423333333,0.200444539
4.426666667,0.201385498
4.43,0.191970825
4.433333333,0.164464315
4.436666667,0.157903035
4.44,0.174346924
4.443333333,0.211842855
4.446666667,0.199473063
4.45,0.203399658
4.453333333,0.204503377
4.456666667,0.159439087
4.46,0.134155273
4.463333333,0.164759318
4.466666667,0.185572306
4.47,0.184890747
4.473333333,0.164576213
4.476666667,0.181554159
4.48,0.185623169
4.483333333,0.19220988
4.486666667,0.159210205
4.49,0.193862915
4.493333333,0.167597453
4.496666667,0.141799927
4.5,0.161743164
4.503333333,0.142242432
4.506666667,0.144017537
4.51,0.157211304
4.513333333,0.152170817
4.516666667,0.148010254
4.52,0.169677734
4.523333333,0.157953898
4.526666667,0.13117981
4.53,0.111602783
4.533333333,0.095494588
4.536666667,0.151850382
4.54,0.184432983
4.543333333,0.152638753
4.546666667,0.198689779
4.55,0.213699341
4.553333333,0.179011027
4.556666667,0.169784546
4.56,0.200317383
4.563333333,0.17384847
4.566666667,0.193608602
4.57,0.172927856
4.573333333,0.184102376
4.576666667,0.237630208
4.58,0.202606201
4.583333333,0.180435181
4.586666667,0.203292847
4.59,0.177215576
4.593333333,0.191523234
4.596666667,0.131922404
4.6,0.172805786
4.603333333,0.183944702
4.606666667,0.146931966
4.61,0.182632446
4.613333333,0.225418091
4.616666667,0.156885783
4.62,0.164321899
4.623333333,0.166773478
4.626666667,0.157170614
4.63,0.152984619
4.633333333,0.147272746
4.636666667,0.120625814
4.64,0.205154419
4.643333333,0.202453613
4.646666667,0.182276408
4.65,0.142211914
4.653333333,0.141148885
4.656666667,0.118133545
4.66,0.116134644
4.663333333,0.174601237
4.666666667,0.168863932
4.67,0.149688721
4.673333333,0.165064494
4.676666667,0.155359904
4.68,0.157470703
4.683333333,0.160293579
4.686666667,0.174540202
4.69,0.180114746
4.693333333,0.218826294
4.696666667,0.194712321
4.7,0.197296143
4.703333333,0.208384196
4.706666667,0.119710286
4.71,0.083312988
4.713333333,0.13398234
4.716666667,0.166778564
4.72,0.180923462
4.723333333,0.226476034
4.726666667,0.17322286
4.73,0.190444946
4.733333333,0.179545085
4.736666667,0.210947673
4.74,0.183746338
4.743333333,0.140894572
4.746666667,0.181915283
4.75,0.2368927
4.753333333,0.210072835
4.756666667,0.182540894
4.76,0.205978394
4.763333333,0.190241496
4.766666667,0.15141805
4.77,0.210357666
4.773333333,0.159439087
4.776666667,0.1746521
4.78,0.167755127
4.783333333,0.150578817
4.786666667,0.13168335
4.79,0.135910034
4.793333333,0.177062988
4.796666667,0.165039062
4.8,0.162353516
4.803333333,0.16502889
4.806666667,0.173599243
4.81,0.160385132
4.813333333,0.166244507
4.816666667,0.191650391
4.82,0.113327026
4.823333333,0.255396525
4.826666667,0.172566732
4.83,0.154769897
4.833333333,0.204467773
4.836666667,0.163864136
4.84,0.142532349
4.843333333,0.132527669
4.846666667,0.161600749
4.85,0.230255127
4.853333333,0.25982666
4.856666667,0.296742757
4.86,0.3072052
4.863333333,0.386169434
4.866666667,0.441004435
4.87,0.496917725
4.873333333,0.485656738
4.876666667,0.472473145
4.88,0.382003784
4.883333333,0.337804159
4.886666667,0.294855754
4.89,0.197616577
4.893333333,0.035242716
4.896666667,-0.014022827
4.9,-0.054092407
4.903333333,-0.142145793
4.906666667,-0.183766683
4.91,-0.085998535
4.913333333,-0.028864543
4.916666667,0.0319163
4.92,0.097824097
4.923333333,0.131210327
4.926666667,0.157582601
4.93,0.168395996
4.933333333,0.127538045
4.936666667,0.284276326
4.94,0.183914185
4.943333333,0.225911458
4.946666667,0.248906453
4.95,0.249862671
4.953333333,0.240168254
4.956666667,0.25453186
4.96,0.231033325
4.963333333,0.256088257
4.966666667,0.235366821
4.97,0.257080078
4.973333333,0.296966553
4.976666667,0.277699788
4.98,0.267807007
4.983333333,0.278930664
4.986666667,0.214635213
4.99,0.220504761
4.993333333,0.262369792
4.996666667,0.240921021
5,0.215911865
5.003333333,0.256958008
5.006666667,0.299723307
5.01,0.23147583
5.013333333,0.229329427
5.016666667,0.250854492
5.02,0.250534058
5.023333333,0.252909342
5.026666667,0.279210409
5.03,0.283782959
5.033333333,0.258687337
5.036666667,0.265935262
5.04,0.251434326
5.043333333,0.277216593
5.046666667,0.320292155
5.05,0.280075073
5.053333333,0.304438273
5.056666667,0.288859049
5.06,0.26776123
5.063333333,0.288935343
5.066666667,0.325215658
5.07,0.336837769
5.073333333,0.339497884
5.076666667,0.369094849
5.08,0.340515137
5.083333333,0.343195597
5.086666667,0.368835449
5.09,0.382171631
5.093333333,0.409642537
5.096666667,0.460230509
5.1,0.432281494
5.103333333,0.413197835
5.106666667,0.390680949
5.11,0.465087891
5.113333333,0.453496297
5.116666667,0.439198812
5.12,0.449157715
5.123333333,0.440241496
5.126666667,0.381022135
5.13,0.410400391
5.133333333,0.420888265
5.136666667,0.386316935
5.14,0.471893311
5.143333333,0.461827596
5.146666667,0.382034302
5.15,0.408248901
5.153333333,0.414632161
5.156666667,0.426183065
5.16,0.336898804
5.163333333,0.321004232
5.166666667,0.316238403
5.17,0.312484741
5.173333333,0.305821737
5.176666667,0.316665649
5.18,0.288696289
5.183333333,0.289967855
5.186666667,0.259109497
5.19,0.220901489
5.193333333,0.213582357
5.196666667,0.208124797
5.2,0.177993774
5.203333333,0.223490397
5.206666667,0.222488403
5.21,0.191177368
5.213333333,0.215947469
5.216666667,0.224151611
5.22,0.179092407
5.223333333,0.186248779
5.226666667,0.232940674
5.23,0.22038269
5.233333333,0.169423421
5.236666667,0.206263224
5.24,0.180633545
5.243333333,0.133158366
5.246666667,0.180216471
5.25,0.182342529
5.253333333,0.134262085
5.256666667,0.187947591
5.26,0.210159302
5.263333333,0.249384562
5.266666667,0.200169881
5.27,0.250457764
5.273333333,0.237726847
5.276666667,0.215047201
5.28,0.253707886
5.283333333,0.283610026
5.286666667,0.255198161
5.29,0.267227173
5.293333333,0.249059041
5.296666667,0.241236369
5.3,0.278244019
5.303333333,0.289754232
5.306666667,0.266230265
5.31,0.278945923
5.313333333,0.257019043
5.316666667,0.291264852
5.32,0.30317688
5.323333333,0.278559367
5.326666667,0.283594767
5.33,0.269714355
5.333333333,0.257364909
5.336666667,0.294657389
5.34,0.264785767
5.343333333,0.274551392
5.346666667,0.293650309
5.35,0.314102173
5.353333333,0.338170369
5.356666667,0.307449341
5.36,0.241851807
5.363333333,0.28872172
5.366666667,0.269902547
5.37,0.277282715
5.373333333,0.281789144
5.376666667,0.283981323
5.38,0.254776001
5.383333333,0.287297567
5.386666667,0.37646993
5.39,0.2993927
5.393333333,0.291168213
5.396666667,0.22694397
5.4,0.270385742
5.403333333,0.231257121
5.406666667,0.292287191
5.41,0.277770996
5.413333333,0.26797994
5.416666667,0.33416748
5.42,0.31262207
5.423333333,0.346110026
5.426666667,0.267654419
5.43,0.298110962
5.433333333,0.316441854
5.436666667,0.370656331
5.44,0.338134766
5.443333333,0.296641032
5.446666667,0.234659831
5.45,0.243453979
5.453333333,0.325581868
5.456666667,0.259429932
5.46,0.305709839
5.463333333,0.273788452
5.466666667,0.290095011
5.47,0.285324097
5.473333333,0.312627157
5.476666667,0.284250895
5.48,0.259536743
5.483333333,0.25507609
5.486666667,0.315933228
5.49,0.239837646
5.493333333,0.285507202
5.496666667,0.289494832
5.5,0.25100708
5.503333333,0.272827148
5.506666667,0.302607218
5.51,0.299667358
5.513333333,0.348164876
5.516666667,0.321375529
5.52,0.289138794
5.523333333,0.315653483
5.526666667,0.258717855
5.53,0.259246826
5.533333333,0.324198405
5.536666667,0.205347697
5.54,0.300598145
5.543333333,0.306655884
5.546666667,0.292404175
5.55,0.32699585
5.553333333,0.305048625
5.556666667,0.263758341
5.56,0.297836304
5.563333333,0.294591268
5.566666667,0.268249512
5.57,0.325332642
5.573333333,0.294123332
5.576666667,0.276972453
5.58,0.272293091
5.583333333,0.283050537
5.586666667,0.269648234
5.59,0.251785278
5.593333333,0.265477498
5.596666667,0.193786621
5.6,0.242233276
5.603333333,0.218190511
5.606666667,0.269699097
5.61,0.259216309
5.613333333,0.278630575
5.616666667,0.260162354
5.62,0.256866455
5.623333333,0.225916545
5.626666667,0.236475627
5.63,0.21711731
5.633333333,0.230763753
5.636666667,0.253173828
5.64,0.285079956
5.643333333,0.248540243
5.646666667,0.260070801
5.65,0.2734375
5.653333333,0.295679728
5.656666667,0.252207438
5.66,0.279205322
5.663333333,0.270767212
5.666666667,0.341924032
5.67,0.294662476
5.673333333,0.326685588
5.676666667,0.279108683
5.68,0.271591187
5.683333333,0.261383057
5.686666667,0.29401652
5.69,0.282058716
5.693333333,0.283981323
5.696666667,0.323242188
5.7,0.324859619
5.703333333,0.289154053
5.706666667,0.262201945
5.71,0.2449646
5.713333333,0.294631958
5.716666667,0.307413737
5.72,0.323730469
5.723333333,0.245391846
5.726666667,0.277857463
5.73,0.273544312
5.733333333,0.236638387
5.736666667,0.250188192
5.74,0.288391113
5.743333333,0.309651693
5.746666667,0.326609294
5.75,0.308227539
5.753333333,0.351806641
5.756666667,0.407012939
5.76,0.337722778
5.763333333,0.308476766
5.766666667,0.297190348
5.77,0.341705322
5.773333333,0.320404053
5.776666667,0.360326131
5.78,0.365432739
5.783333333,0.341033936
5.786666667,0.353978475
5.79,0.386459351
5.793333333,0.323827108
5.796666667,0.29548645
5.8,0.31463623
5.803333333,0.333969116
5.806666667,0.291224162
5.81,0.335113525
5.813333333,0.304341634
5.816666667,0.247116089
5.82,0.26763916
5.823333333,0.302078247
5.826666667,0.291188558
5.83,0.300033569
5.833333333,0.265248617
5.836666667,0.299448649
5.84,0.291809082
5.843333333,0.266723633
5.846666667,0.247436523
5.85,0.222702026
5.853333333,0.237386068
5.856666667,0.245407104
5.86,0.231002808
5.863333333,0.229131063
5.866666667,0.258916219
5.87,0.264785767
5.873333333,0.22307841
5.876666667,0.185877482
5.88,0.250732422
5.883333333,0.310033162
5.886666667,0.300328573
5.89,0.454040527
5.893333333,0.463892619
5.896666667,0.498357137
5.9,0.519485474
5.903333333,0.489593506
5.906666667,0.443049113
5.91,0.407775879
5.913333333,0.334945679
5.916666667,0.370661418
5.92,0.211273193
5.923333333,0.098358154
5.926666667,0.043233236
5.93,-0.061294556
5.933333333,-0.063985189
5.936666667,-0.106150309
5.94,-0.025543213
5.943333333,-0.024648031
5.946666667,0.07043457
5.95,0.15663147
5.953333333,0.191808065
5.956666667,0.192199707
5.96,0.185180664
5.963333333,0.167912801
5.966666667,0.20421346
5.97,0.161758423
5.973333333,0.180048625
5.976666667,0.179367065
5.98,0.203735352
5.983333333,0.276463826
5.986666667,0.247146606
5.99,0.221481323
5.993333333,0.16410319
5.996666667,0.273254395
6,0.262451172
6.003333333,0.200846354
6.006666667,0.183436076
6.01,0.178497314
6.013333333,0.257217407
6.016666667,0.277023315
6.02,0.259429932
6.023333333,0.214660645
6.026666667,0.232691447
6.03,0.265548706
6.033333333,0.272725423
6.036666667,0.310857137
6.04,0.285339355
6.043333333,0.247217814
6.046666667,0.287577311
6.05,0.320053101
6.053333333,0.261891683
6.056666667,0.294484456
6.06,0.263671875
6.063333333,0.261688232
6.066666667,0.312296549
6.07,0.334594727
6.073333333,0.306574504
6.076666667,0.362803141
6.08,0.362823486
6.083333333,0.346755981
6.086666667,0.344365438
6.09,0.343933105
6.093333333,0.315755208
6.096666667,0.336003621
6.1,0.361633301
6.103333333,0.344075521
6.106666667,0.391316732
6.11,0.448516846
6.113333333,0.421529134
6.116666667,0.45211792
6.12,0.436233521
6.123333333,0.44925944
6.126666667,0.419728597
6.13,0.456588745
6.133333333,0.47686259
6.136666667,0.551106771
6.14,0.523834229
6.143333333,0.489603678
6.146666667,0.523595174
6.15,0.578384399
6.153333333,0.59677124
6.156666667,0.524414062
6.16,0.538528442
6.163333333,0.550857544
6.166666667,0.573603312
6.17,0.551956177
6.173333333,0.549758911
6.176666667,0.567637126
6.18,0.539215088
6.183333333,0.529785156
6.186666667,0.551294963
6.19,0.535140991
6.193333333,0.549550374
6.196666667,0.486231486
6.2,0.469284058
6.203333333,0.512090047
6.206666667,0.443862915
6.21,0.420059204
6.213333333,0.438130697
6.216666667,0.411987305
6.22,0.392929077
6.223333333,0.383839925
6.226666667,0.335881551
6.23,0.363677979
6.233333333,0.386505127
6.236666667,0.361160278
6.24,0.429367065
6.243333333,0.339014689
6.246666667,0.342854818
6.25,0.405883789
6.253333333,0.335500081
6.256666667,0.287134806
6.26,0.327301025
6.263333333,0.353103638
6.266666667,0.372594198
6.27,0.382675171
6.273333333,0.35206604
6.276666667,0.301884969
6.28,0.30229187
6.283333333,0.317891439
6.286666667,0.329299927
6.29,0.349304199
6.293333333,0.302495321
6.296666667,0.288350423
6.3,0.333404541
6.303333333,0.38033549
6.306666667,0.374832153
6.31,0.332229614
6.313333333,0.35828654
6.316666667,0.38520813
6.32,0.354827881
6.323333333,0.368255615
6.326666667,0.385640462
6.33,0.350799561
6.333333333,0.396855672
6.336666667,0.404225667
6.34,0.433990479
6.343333333,0.412684123
6.346666667,0.418777466
6.35,0.388870239
6.353333333,0.390090942
6.356666667,0.370366414
6.36,0.374649048
6.363333333,0.388829549
6.366666667,0.413080851
6.37,0.404327393
6.373333333,0.382685343
6.376666667,0.390350342
6.38,0.330169678
6.383333333,0.365142822
6.386666667,0.451248169
6.39,0.389663696
6.393333333,0.349939982
6.396666667,0.318115234
6.4,0.345687866
6.403333333,0.363830566
6.406666667,0.364969889
6.41,0.423095703
6.413333333,0.399454753
6.416666667,0.361633301
6.42,0.326980591
6.423333333,0.384536743
6.426666667,0.380396525
6.43,0.361724854
6.433333333,0.36954244
6.436666667,0.377685547
6.44,0.395141602
6.443333333,0.287307739
6.446666667,0.304982503
6.45,0.349960327
6.453333333,0.382400513
6.456666667,0.296676636
6.46,0.317871094
6.463333333,0.3499705
6.466666667,0.371805827
6.47,0.358337402
6.473333333,0.347666423
6.476666667,0.299779256
6.48,0.317932129
6.483333333,0.276056925
6.486666667,0.301589966
6.49,0.346969604
6.493333333,0.302978516
6.496666667,0.320943197
6.5,0.329208374
6.503333333,0.351999919
6.506666667,0.308156331
6.51,0.340072632
6.513333333,0.368367513
6.516666667,0.356801351
6.52,0.36277771
6.523333333,0.338094076
6.526666667,0.329152425
6.53,0.395523071
6.533333333,0.321146647
6.536666667,0.332524618
6.54,0.316375732
6.543333333,0.338694255
6.546666667,0.34421285
6.55,0.339508057
6.553333333,0.274820964
6.556666667,0.350606283
6.56,0.331344604
6.563333333,0.291651408
6.566666667,0.339635213
6.57,0.342590332
6.573333333,0.367965698
6.576666667,0.348398844
6.58,0.368850708
6.583333333,0.383758545
6.586666667,0.369303385
6.59,0.36831665
6.593333333,0.300669352
6.596666667,0.325159709
6.6,0.407562256
6.603333333,0.389877319
6.606666667,0.349141439
6.61,0.337677002
6.613333333,0.334665934
6.616666667,0.285898844
6.62,0.305755615
6.623333333,0.302068075
6.626666667,0.368937174
6.63,0.303878784
6.633333333,0.315806071
6.636666667,0.289520264
6.64,0.300186157
6.643333333,0.360285441
6.646666667,0.358942668
6.65,0.35118103
6.653333333,0.374282837
6.656666667,0.341847738
6.66,0.344604492
6.663333333,0.326349894
6.666666667,0.327555339
6.67,0.299057007
6.673333333,0.299046834
6.676666667,0.303614299
6.68,0.335388184
6.683333333,0.325495402
6.686666667,0.235875448
6.69,0.218139648
6.693333333,0.341725667
6.696666667,0.296447754
6.7,0.298080444
6.703333333,0.301549276
6.706666667,0.246047974
6.71,0.294952393
6.713333333,0.269226074
6.716666667,0.238952637
6.72,0.227874756
6.723333333,0.244628906
6.726666667,0.254837036
6.73,0.264831543
6.733333333,0.263875326
6.736666667,0.240264893
6.74,0.280776978
6.743333333,0.266387939
6.746666667,0.262400309
6.75,0.315475464
6.753333333,0.337036133
6.756666667,0.297129313
6.76,0.270004272
6.763333333,0.301895142
6.766666667,0.264383952
6.77,0.291397095
6.773333333,0.280817668
6.776666667,0.269719442
6.78,0.339157104
6.783333333,0.348103841
6.786666667,0.264846802
6.79,0.270584106
6.793333333,0.267812093
6.796666667,0.272577922
6.8,0.277404785
6.803333333,0.309967041
6.806666667,0.342595418
6.81,0.321670532
6.813333333,0.280105591
6.816666667,0.310084025
6.82,0.310058594
6.823333333,0.275126139
6.826666667,0.203913371
6.83,0.235549927
6.833333333,0.279490153
6.836666667,0.261144002
6.84,0.207946777
6.843333333,0.202387492
6.846666667,0.268747965
6.85,0.263748169
6.853333333,0.260391235
6.856666667,0.224156698
6.86,0.266494751
6.863333333,0.245488485
6.866666667,0.272598267
6.87,0.242172241
6.873333333,0.234263102
6.876666667,0.208155314
6.88,0.261444092
6.883333333,0.235137939
6.886666667,0.229008993
6.89,0.228256226
6.893333333,0.212341309
6.896666667,0.217503866
6.9,0.235595703
6.903333333,0.203191121
6.906666667,0.188400269
6.91,0.211883545
6.913333333,0.332570394
6.916666667,0.431187948
6.92,0.436050415
6.923333333,0.497294108
6.926666667,0.575261434
6.93,0.581069946
6.933333333,0.48634847
6.936666667,0.417154948
6.94,0.334640503
6.943333333,0.326761882
6.946666667,0.216176351
6.95,0.112304687
6.953333333,0.002700806
6.956666667,-0.076629639
6.96,-0.106216431
6.963333333,-0.126856486
6.966666667,0.013554891
6.97,0.051773071
6.973333333,0.081558228
6.976666667,0.153991699
6.98,0.227859497
6.983333333,0.179697673
6.986666667,0.206247965
6.99,0.240112305
6.993333333,0.214701335
6.996666667,0.206314087
7,0.22315979
7.003333333,0.201599121
7.006666667,0.206614176
7.01,0.24156189
7.013333333,0.241541545
7.016666667,0.23882548
7.02,0.23298645
7.023333333,0.196563721
7.026666667,0.175949097
7.03,0.213500977
7.033333333,0.245488485
7.036666667,0.26352946
7.04,0.271865845
7.043333333,0.285552979
7.046666667,0.289408366
7.05,0.336914062
7.053333333,0.343633016
7.056666667,0.278025309
7.06,0.256515503
7.063333333,0.268666585
7.066666667,0.288798014
7.07,0.337142944
7.073333333,0.285517375
7.076666667,0.334192912
7.08,0.339172363
7.083333333,0.298563639
7.086666667,0.309127808
7.09,0.260147095
7.093333333,0.251185099
7.096666667,0.303029378
7.1,0.297622681
7.103333333,0.285512288
7.106666667,0.254526774
7.11,0.214111328
7.113333333,0.340250651
7.116666667,0.324249268
7.12,0.31463623
7.123333333,0.370798747
7.126666667,0.34715271
7.13,0.358184814
7.133333333,0.362472534
7.136666667,0.349655151
7.14,0.394454956
7.143333333,0.420084635
7.146666667,0.410776774
7.15,0.424423218
7.153333333,0.391967773
7.156666667,0.395573934
7.16,0.507904053
7.163333333,0.490854899
7.166666667,0.494257609
7.17,0.48425293
7.173333333,0.524378459
7.176666667,0.444564819
7.18,0.448577881
7.183333333,0.439453125
7.186666667,0.456375122
7.19,0.46421814
7.193333333,0.481160482
7.196666667,0.481852214
7.2,0.486679077
7.203333333,0.468256632
7.206666667,0.437586466
7.21,0.479095459
7.213333333,0.49710083
7.216666667,0.461298625
7.22,0.466400146
7.223333333,0.436960856
7.226666667,0.496831258
7.23,0.428817749
7.233333333,0.381139119
7.236666667,0.377090454
7.24,0.276504517
7.243333333,0.28205363
7.246666667,0.304906209
7.25,0.240325928
7.253333333,0.196034749
7.256666667,0.22013855
7.26,0.185348511
7.263333333,0.178375244
7.266666667,0.134455363
7.27,0.132949829
7.273333333,0.100468953
7.276666667,0.101938883
7.28,0.092956543
7.283333333,0.08488973
7.286666667,0.085942586
7.29,0.124923706
7.293333333,0.043523153
7.296666667,0.065093994
7.3,0.052337646
7.303333333,0.098114014
7.306666667,0.055638631
7.31,0.039871216
7.313333333,0.085189819
7.316666667,0.133463542
7.32,0.105194092
7.323333333,0.056182861
7.326666667,0.046066284
7.33,0.065078735
7.333333333,0.058237712
7.336666667,0.045873006
7.34,0.05871582
7.343333333,0.114903768
7.346666667,0.07236735
7.35,0.072174072
7.353333333,0.091156006
7.356666667,0.058181763
7.36,0.075668335
7.363333333,0.069402059
7.366666667,0.124053955
7.37,0.066040039
7.373333333,0.030721029
7.376666667,0.048350016
7.38,0.051712036
7.383333333,0.073750814
7.386666667,0.145329793
7.39,0.068664551
7.393333333,0.119659424
7.396666667,0.030985514
7.4,0.058288574
7.403333333,0.056009928
7.406666667,0.037195841
7.41,0.039230347
7.413333333,0.072555542
7.416666667,0.100199382
7.42,0.060333252
7.423333333,0.058329264
7.426666667,0.076807658
7.43,0.082824707
7.433333333,0.03306071
7.436666667,0.024810791
7.44,0.059371948
7.443333333,0.028254191
7.446666667,0.006663005
7.45,0.066299438
7.453333333,0.096791585
7.456666667,0.039632161
7.46,0.016998291
7.463333333,-0.007054647
7.466666667,0.021235148
7.47,0.016891479
7.473333333,0.022074382
7.476666667,-0.00936381
7.48,0.054656982
7.483333333,0.038630168
7.486666667,0.013590495
7.49,-0.055328369
7.493333333,0.015848796
7.496666667,0.065419515
7.5,0.089263916
7.503333333,0.031529744
7.506666667,0.059346517
7.51,0.051620483
7.513333333,0.008626302
7.516666667,0.078252157
7.52,0.014709473
7.523333333,0.040588379
7.526666667,-0.004597982
7.53,0.003326416
7.533333333,0.018030802
7.536666667,0.028244019
7.54,0.014007568
7.543333333,-0.007436117
7.546666667,0.017400106
7.55,-0.045089722
7.553333333,-0.046386719
7.556666667,-0.07081604
7.56,-0.049102783
7.563333333,-0.017562866
7.566666667,-0.027516683
7.57,-0.012542725
7.573333333,0.01651001
7.576666667,-0.051956177
7.58,-0.044799805
7.583333333,-0.013224284
7.586666667,-0.029337565
7.59,-0.023284912
7.593333333,-0.049489339
7.596666667,-0.025975545
7.6,-0.004272461
7.603333333,-0.047312419
7.606666667,-0.057978312
7.61,-0.035446167
7.613333333,-0.054636637
7.616666667,-0.016886393
7.62,0.021560669
7.623333333,-0.024836222
7.626666667,-0.028676351
7.63,-0.053787231
7.633333333,0.009358724
7.636666667,-0.01936849
7.64,-0.056442261
7.643333333,-0.072662354
7.646666667,-0.041809082
7.65,-0.006866455
7.653333333,-0.028223674
7.656666667,-0.046040853
7.66,-0.007553101
7.663333333,-0.024729411
7.666666667,-0.021743774
7.67,-0.037078857
7.673333333,-0.043736776
7.676666667,-0.07144165
7.68,-0.015975952
7.683333333,-0.065180461
7.686666667,-0.036560059
7.69,-0.005386353
7.693333333,-0.018610636
7.696666667,0.010950724
7.7,-0.006332397
7.703333333,-0.046045939
7.706666667,-0.09749349
7.71,-0.044250488
7.713333333,-0.054295858
7.716666667,-0.05994161
7.72,-0.04750061
7.723333333,-0.055908203
7.726666667,-0.057785034
7.73,-0.059555054
7.733333333,-0.062255859
7.736666667,-0.0243632
7.74,-0.055084229
7.743333333,-0.11541748
7.746666667,-0.053787231
7.75,-0.002288818
7.753333333,-0.11366272
7.756666667,-0.088419596
7.76,-0.117263794
7.763333333,-0.088821411
7.766666667,-0.094935099
7.77,-0.074035645
7.773333333,-0.05855306
7.776666667,-0.057693481
7.78,-0.065292358
7.783333333,-0.082295736
7.786666667,-0.117136637
7.79,-0.108428955
7.793333333,-0.090082804
7.796666667,-0.077626546
7.8,-0.064163208
7.803333333,-0.067988078
7.806666667,-0.077173869
7.81,-0.114822388
7.813333333,-0.092753092
7.816666667,-0.083007812
7.82,-0.05847168
7.823333333,-0.014602661
7.826666667,-0.067540487
7.83,-0.060470581
7.833333333,-0.026702881
7.836666667,-0.079864502
7.84,-0.11946106
7.843333333,-0.124231974
7.846666667,-0.099360148
7.85,-0.146484375
7.853333333,-0.136835734
7.856666667,-0.104929606
7.86,-0.110229492
7.863333333,-0.141825358
7.866666667,-0.123697917
7.87,-0.118682861
7.873333333,-0.146957397
7.876666667,-0.160761515
7.88,-0.163650513
7.883333333,-0.145848592
7.886666667,-0.150141398
7.89,-0.154205322
7.893333333,-0.150293986
7.896666667,-0.137151082
7.9,-0.147171021
7.903333333,-0.134338379
7.906666667,-0.099578857
7.91,-0.079879761
7.913333333,-0.1328125
7.916666667,-0.109100342
7.92,-0.130493164
7.923333333,-0.130137126
7.926666667,-0.076095581
7.93,-0.034042358
7.933333333,0.027440389
7.936666667,0.108428955
7.94,0.145111084
7.943333333,0.223627726
7.946666667,0.289464315
7.95,0.325622559
7.953333333,0.221898397
7.956666667,0.105723063
7.96,0.004379272
7.963333333,-0.021174113
7.966666667,-0.11235555
7.97,-0.211013794
7.973333333,-0.311676025
7.976666667,-0.383188883
7.98,-0.409988403
7.983333333,-0.448608398
7.986666667,-0.382954915
7.99,-0.314224243
7.993333333,-0.287150065
7.996666667,-0.156809489
8,-0.057220459
8.003333333,-0.031173706
8.006666667,-0.041422526
8.01,-0.084671021
8.013333333,-0.038162231
8.016666667,-0.036621094
8.02,-0.030593872
8.023333333,-0.072153727
8.026666667,-0.057149251
8.03,-0.039245605
8.033333333,-0.03267924
8.036666667,-0.01222229
8.04,-0.039321899
8.043333333,0.013839722
8.046666667,-0.016042074
8.05,0.007629395
8.053333333,-0.022862752
8.056666667,-0.010640462
8.06,0.022293091
8.063333333,-0.004847209
8.066666667,0.028686523
8.07,0.038848877
8.073333333,0.041849772
8.076666667,0.046325684
8.08,0.013717651
8.083333333,0.017674764
8.086666667,0.045481364
8.09,0.032226562
8.093333333,0.112182617
8.096666667,0.053848267
8.1,0.089035034
8.103333333,0.117823283
8.106666667,0.116836548
8.11,0.055374146
8.113333333,0.053222656
8.116666667,0.03288269
8.12,0.094146729
8.123333333,0.066472371
8.126666667,0.042978923
8.13,0.078430176
8.133333333,0.151163737
8.136666667,0.09677124
8.14,0.124954224
8.143333333,0.172434489
8.146666667,0.113637288
8.15,0.12298584
8.153333333,0.167495728
8.156666667,0.17725118
8.16,0.167175293
8.163333333,0.172490438
8.166666667,0.218200684
8.17,0.233520508
8.173333333,0.192769368
8.176666667,0.182434082
8.18,0.186935425
8.183333333,0.281651815
8.186666667,0.240183512
8.19,0.236083984
8.193333333,0.204686483
8.196666667,0.252263387
8.2,0.290374756
8.203333333,0.274261475
8.206666667,0.296722412
8.21,0.270263672
8.213333333,0.274429321
8.216666667,0.289154053
8.22,0.245834351
8.223333333,0.233037313
8.226666667,0.249384562
8.23,0.240753174
8.233333333,0.227584839
8.236666667,0.263514201
8.24,0.230209351
8.243333333,0.179031372
8.246666667,0.179779053
8.25,0.188827515
8.253333333,0.190088908
8.256666667,0.168869019
8.26,0.127243042
8.263333333,0.119211833
8.266666667,0.047429403
8.27,0.083145142
8.273333333,0.096984863
8.276666667,0.050750732
8.28,-0.05519104
8.283333333,0.067036947
8.286666667,0.029713949
8.29,0.007171631
8.293333333,-0.006988525
8.296666667,0.015085856
8.3,0.009460449
8.303333333,-0.014333089
8.306666667,-0.031524658
8.31,-0.01373291
8.313333333,0.007303874
8.316666667,-0.018793742
8.32,-0.042312622
8.323333333,-0.053446452
8.326666667,-0.029312134
8.33,-0.014877319
8.333333333,-0.010299683
8.336666667,-0.042541504
8.34,-0.006790161
8.343333333,-0.045618693
8.346666667,-0.072580973
8.35,-0.05355835
8.353333333,-0.072397868
8.356666667,-0.043762207
8.36,-0.019119263
8.363333333,-0.059865316
8.366666667,-0.020751953
8.37,-0.019760132
8.373333333,-0.052093506
8.376666667,-0.029658
8.38,-0.032836914
8.383333333,0.019989014
8.386666667,-0.000361125
8.39,-0.042053223
8.393333333,-0.008977254
8.396666667,-0.040262858
8.4,0.008468628
8.403333333,0.019592285
8.406666667,0.023773193
8.41,0.006912231
8.413333333,0.017323812
8.416666667,-0.040562948
8.42,0.006546021
8.423333333,0.038691203
8.426666667,0.055979411
8.43,0.02557373
8.433333333,-0.012257894
8.436666667,-0.018137614
8.44,-0.010055542
8.443333333,0.086598714
8.446666667,0.079559326
8.45,0.028305054
8.453333333,0.05144755
8.456666667,0.065388997
8.46,0.06942749
8.463333333,0.050292969
8.466666667,0.099538167
8.47,0.103378296
8.473333333,0.093312581
8.476666667,0.078567505
8.48,0.096466064
8.483333333,0.106531779
8.486666667,0.122655233
8.49,0.084487915
8.493333333,0.110056559
8.496666667,0.166982015
8.5,0.119781494
8.503333333,0.129842122
8.506666667,0.104344686
8.51,0.120422363
8.513333333,0.164281209
8.516666667,0.1709493
8.52,0.18862915
8.523333333,0.157536825
8.526666667,0.152496338
8.53,0.14201355
8.533333333,0.137659709
8.536666667,0.123819987
8.54,0.11100769
8.543333333,0.182225545
8.546666667,0.152348836
8.55,0.159378052
8.553333333,0.159317017
8.556666667,0.141174316
8.56,0.139953613
8.563333333,0.083887736
8.566666667,0.141677856
8.57,0.12487793
8.573333333,0.154129028
8.576666667,0.166427612
8.58,0.204742432
8.583333333,0.184377035
8.586666667,0.153569539
8.59,0.150436401
8.593333333,0.193242391
8.596666667,0.207743327
8.6,0.17539978
8.603333333,0.173121134
8.606666667,0.191380819
8.61,0.209747314
8.613333333,0.195302327
8.616666667,0.217310588
8.62,0.1796875
8.623333333,0.242502848
8.626666667,0.233362834
8.63,0.192581177
8.633333333,0.214004517
8.636666667,0.164672852
8.64,0.175048828
8.643333333,0.220235189
8.646666667,0.221654256
8.65,0.220031738
8.653333333,0.17203776
8.656666667,0.229685465
8.66,0.199874878
8.663333333,0.213597616
8.666666667,0.270970662
8.67,0.231307983
8.673333333,0.237009684
8.676666667,0.220067342
8.68,0.176834106
8.683333333,0.211054484
8.686666667,0.209482829
8.69,0.223327637
8.693333333,0.22211202
8.696666667,0.167093913
8.7,0.202789307
8.703333333,0.210912069
8.706666667,0.21987915
8.71,0.244522095
8.713333333,0.209538778
8.716666667,0.233739217
8.72,0.246154785
8.723333333,0.231491089
8.726666667,0.144938151
8.73,0.176437378
8.733333333,0.201797485
8.736666667,0.208368937
8.74,0.256607056
8.743333333,0.224451701
8.746666667,0.250823975
8.75,0.2784729
8.753333333,0.255004883
8.756666667,0.23693339
8.76,0.261932373
8.763333333,0.241032918
8.766666667,0.256093343
8.77,0.281021118
8.773333333,0.293014526
8.776666667,0.25638326
8.78,0.250244141
8.783333333,0.249633789
8.786666667,0.259587606
8.79,0.213989258
8.793333333,0.221415202
8.796666667,0.209162394
8.8,0.193405151
8.803333333,0.237767537
8.806666667,0.231201172
8.81,0.212173462
8.813333333,0.247395833
8.816666667,0.258000692
8.82,0.241699219
8.823333333,0.214324951
8.826666667,0.215092977
8.83,0.209838867
8.833333333,0.205357869
8.836666667,0.192988078
8.84,0.200012207
8.843333333,0.172281901
8.846666667,0.146891276
8.85,0.108413696
8.853333333,0.088277181
8.856666667,0.123947144
8.86,0.194244385
8.863333333,0.135203044
8.866666667,0.161794027
8.87,0.146133423
8.873333333,0.098480225
8.876666667,0.134521484
8.88,0.17024231
8.883333333,0.143356323
8.886666667,0.123458862
8.89,0.158050537
8.893333333,0.138631185
8.896666667,0.130513509
8.9,0.13168335
8.903333333,0.153137207
8.906666667,0.132990519
8.91,0.1534729
8.913333333,0.11622111
8.916666667,0.179417928
8.92,0.293502808
8.923333333,0.352513631
8.926666667,0.409474691
8.93,0.51940918
8.933333333,0.565668742
8.936666667,0.481882731
8.94,0.412155151
8.943333333,0.304377238
8.946666667,0.244125366
8.95,0.209960937
8.953333333,0.043538411
8.956666667,-0.015904744
8.96,-0.067108154
8.963333333,-0.112258911
8.966666667,-0.180664062
8.97,-0.143218994
8.973333333,-0.104217529
8.976666667,-0.064921061
8.98,-0.006378174
8.983333333,0.122451782
8.986666667,0.111958822
8.99,0.129348755
8.993333333,0.176381429
8.996666667,0.179621379
9,0.224304199
9.003333333,0.213709513
9.006666667,0.167760213
9.01,0.151504517
9.013333333,0.192113241
9.016666667,0.217488607
9.02,0.21395874
9.023333333,0.189020793
9.026666667,0.200546265
9.03,0.235916138
9.033333333,0.272750854
9.036666667,0.23479716
9.04,0.210861206
9.043333333,0.270055135
9.046666667,0.280248006
9.05,0.296020508
9.053333333,0.325419108
9.056666667,0.261169434
9.06,0.256729126
9.063333333,0.274093628
9.066666667,0.219930013
9.07,0.311477661
9.073333333,0.288401286
9.076666667,0.201939901
9.08,0.205718994
9.083333333,0.347391764
9.086666667,0.329630534
9.09,0.308670044
9.093333333,0.264979045
9.096666667,0.206120809
9.1,0.221176147
9.103333333,0.256479899
9.106666667,0.296091715
9.11,0.268585205
9.113333333,0.302541097
9.116666667,0.308685303
9.12,0.308746338
9.123333333,0.289454142
9.126666667,0.311248779
9.13,0.346420288
9.133333333,0.294036865
9.136666667,0.331685384
9.14,0.331848145
9.143333333,0.280370076
9.146666667,0.309402466
9.15,0.370025635
9.153333333,0.339899699
9.156666667,0.319412231
9.16,0.339813232
9.163333333,0.344629924
9.166666667,0.383249919
9.17,0.348510742
9.173333333,0.364252726
9.176666667,0.416061401
9.18,0.425018311
9.183333333,0.437342326
9.186666667,0.398330688
9.19,0.433959961
9.193333333,0.483973185
9.196666667,0.488978068
9.2,0.494918823
9.203333333,0.466608683
9.206666667,0.494669596
9.21,0.514663696
9.213333333,0.421081543
9.216666667,0.424194336
9.22,0.461624146
9.223333333,0.420247396
9.226666667,0.416554769
9.23,0.412582397
9.233333333,0.369491577
9.236666667,0.317637126
9.24,0.339294434
9.243333333,0.308949788
9.246666667,0.24895223
9.25,0.259399414
9.253333333,0.235499064
9.256666667,0.187642415
9.26,0.17149353
9.263333333,0.135569255
9.266666667,0.172475179
9.27,0.108688354
9.273333333,0.120986938
9.276666667,0.124425252
9.28,0.143951416
9.283333333,0.143127441
9.286666667,0.148498535
9.29,0.117507935
9.293333333,0.121907552
9.296666667,0.091837565
9.3,0.164794922
9.303333333,0.148376465
9.306666667,0.159739176
9.31,0.141815186
9.313333333,0.174102783
9.316666667,0.171229045
9.32,0.16607666
9.323333333,0.125813802
9.326666667,0.125554403
9.33,0.183639526
9.333333333,0.201034546
9.336666667,0.165817261
9.34,0.166122437
9.343333333,0.147989909
9.346666667,0.130671183
9.35,0.185546875
9.353333333,0.140111287
9.356666667,0.139587402
9.36,0.113830566
9.363333333,0.193125407
9.366666667,0.181172689
9.37,0.142501831
9.373333333,0.087229411
9.376666667,0.093775431
9.38,0.058364868
9.383333333,0.133590698
9.386666667,0.156840007
9.39,0.129516602
9.393333333,0.144983927
9.396666667,0.127334595
9.4,0.10887146
9.403333333,0.096506755
9.406666667,0.110443115
9.41,0.13331604
9.413333333,0.120234172
9.416666667,0.137837728
9.42,0.113967896
9.423333333,0.132253011
9.426666667,0.142842611
9.43,0.164352417
9.433333333,0.132115682
9.436666667,0.113484701
9.44,0.089981079
9.443333333,0.119455973
9.446666667,0.104807536
9.45,0.099716187
9.453333333,0.111755371
9.456666667,0.111546834
9.46,0.163497925
9.463333333,0.126698812
9.466666667,0.111719767
9.47,0.108581543
9.473333333,0.121470133
9.476666667,0.089513143
9.48,0.105041504
9.483333333,0.10559082
9.486666667,0.095082601
9.49,0.085891724
9.493333333,0.086420695
9.496666667,0.092152913
9.5,0.066375732
9.503333333,0.090565999
9.506666667,0.086380005
9.51,0.069107056
9.513333333,0.082789103
9.516666667,0.106658936
9.52,0.126480103
9.523333333,0.087056478
9.526666667,0.074142456
9.53,0.113250732
9.533333333,0.121994019
9.536666667,0.063232422
9.54,0.056335449
9.543333333,0.101175944
9.546666667,0.090642293
9.55,0.118789673
9.553333333,0.118703206
9.556666667,0.103739421
9.56,0.088592529
9.563333333,0.132293701
9.566666667,0.129063924
9.57,0.129943848
9.573333333,0.117182414
9.576666667,0.069259644
9.58,0.054855347
9.583333333,0.124867757
9.586666667,0.073933919
9.59,0.09677124
9.593333333,0.082794189
9.596666667,0.104726156
9.6,0.106201172
9.603333333,0.107289632
9.606666667,0.113210042
9.61,0.117523193
9.613333333,0.129313151
9.616666667,0.107294718
9.62,0.083450317
9.623333333,0.127405802
9.626666667,0.121490479
9.63,0.130722046
9.633333333,0.114517212
9.636666667,0.123906453
9.64,0.118041992
9.643333333,0.134592692
9.646666667,0.148549398
9.65,0.165710449
9.653333333,0.109827677
9.656666667,0.103988647
9.66,0.199462891
9.663333333,0.207000732
9.666666667,0.165939331
9.67,0.149459839
9.673333333,0.196848551
9.676666667,0.16511027
9.68,0.188735962
9.683333333,0.258560181
9.686666667,0.219889323
9.69,0.184829712
9.693333333,0.183787028
9.696666667,0.201299032
9.7,0.267791748
9.703333333,0.172114054
9.706666667,0.194071452
9.71,0.215805054
9.713333333,0.182800293
9.716666667,0.143636068
9.72,0.1822052
9.723333333,0.175252279
9.726666667,0.248046875
9.73,0.245346069
9.733333333,0.258407593
9.736666667,0.293395996
9.74,0.240615845
9.743333333,0.220794678
9.746666667,0.231226603
9.75,0.268554688
9.753333333,0.235056559
9.756666667,0.197682699
9.76,0.208847046
9.763333333,0.174657186
9.766666667,0.172348022
9.77,0.202590942
9.773333333,0.170679728
9.776666667,0.123240153
9.78,0.118850708
9.783333333,0.209732056
9.786666667,0.176361084
9.79,0.132492065
9.793333333,0.172154744
9.796666667,0.144897461
9.8,0.120162964
9.803333333,0.154179891
9.806666667,0.20119222
9.81,0.177703857
9.813333333,0.139902751
9.816666667,0.130004883
9.82,0.195877075
9.823333333,0.176055908
9.826666667,0.175099691
9.83,0.242782593
9.833333333,0.221633911
9.836666667,0.274729411
9.84,0.304458618
9.843333333,0.369537354
9.846666667,0.427942912
9.85,0.488891602
9.853333333,0.507807414
9.856666667,0.437657674
9.86,0.341583252
9.863333333,0.300140381
9.866666667,0.257644653
9.87,0.128463745
9.873333333,0.108317057
9.876666667,-0.012598674
9.88,-0.052429199
9.883333333,-0.090637207
9.886666667,-0.053787231
9.89,-0.11958313
9.893333333,-0.133916219
9.896666667,-0.014516195
9.9,0.044631958
9.903333333,0.134633382
9.906666667,0.164535522
9.91,0.171142578
9.913333333,0.221303304
9.916666667,0.224049886
9.92,0.207839966
9.923333333,0.206563314
9.926666667,0.197825114
9.93,0.21421814
9.933333333,0.22122701
9.936666667,0.216842651
9.94,0.181854248
9.943333333,0.176701864
9.946666667,0.233729045
9.95,0.269470215
9.953333333,0.281519572
9.956666667,0.245407104
9.96,0.272689819
9.963333333,0.282450358
9.966666667,0.273590088
9.97,0.265808105
9.973333333,0.261967977
9.976666667,0.288914998
9.98,0.283340454
9.983333333,0.291570028
9.986666667,0.328379313
9.99,0.278442383
9.993333333,0.274353027
9.996666667,0.265716553
10,0.291824341
10.00333333,0.313532511
10.00666667,0.309575399
10.01,0.272476196
10.01333333,0.26327006
10.01666667,0.277964274
10.02,0.248443604
10.02333333,0.233734131
10.02666667,0.31656901
10.03,0.257125854
10.03333333,0.276870728
10.03666667,0.296691895
10.04,0.339645386
10.04333333,0.299463908
10.04666667,0.315266927
10.05,0.341796875
10.05333333,0.336619059
10.05666667,0.31284078
10.06,0.33706665
10.06333333,0.316467285
10.06666667,0.363438924
10.07,0.385864258
10.07333333,0.37562561
10.07666667,0.374582926
10.08,0.363037109
10.08333333,0.398763021
10.08666667,0.406316121
10.09,0.38734436
10.09333333,0.450520833
10.09666667,0.410639445
10.1,0.411148071
10.10333333,0.492482503
10.10666667,0.4496816
10.11,0.497299194
10.11333333,0.458511353
10.11666667,0.465189616
10.12,0.48085022
10.12333333,0.451731364
10.12666667,0.448176066
10.13,0.521499634
10.13333333,0.42388916
10.13666667,0.431523641
10.14,0.419311523
10.14333333,0.441945394
10.14666667,0.419845581
10.15,0.393829346
10.15333333,0.36235555
10.15666667,0.34845988
10.16,0.346389771
10.16333333,0.316060384
10.16666667,0.336329142
10.17,0.332550049
10.17333333,0.280039469
10.17666667,0.257904053
10.18,0.281173706
10.18333333,0.274251302
10.18666667,0.24492391
10.19,0.228149414
10.19333333,0.193517049
10.19666667,0.145528158
10.2,0.220489502
10.20333333,0.235626221
10.20666667,0.225046794
10.21,0.226028442
10.21333333,0.243642171
10.21666667,0.247065226
10.22,0.205718994
10.22333333,0.181869507
10.22666667,0.19225057
10.23,0.205429077
10.23333333,0.209299723
10.23666667,0.222681681
10.24,0.228271484
10.24333333,0.296946208
10.24666667,0.231989543
10.25,0.215148926
10.25333333,0.20711263
10.25666667,0.278116862
10.26,0.266830444
10.26333333,0.263727824
10.26666667,0.285568237
10.27,0.257461548
10.27333333,0.23798116
10.27666667,0.245691935
10.28,0.229354858
10.28333333,0.249862671
10.28666667,0.215866089
10.29,0.241271973
10.29333333,0.262110392
10.29666667,0.241333008
10.3,0.238800049
10.30333333,0.257344564
10.30666667,0.243810018
10.31,0.221328735
10.31333333,0.231323242
10.31666667,0.247828166
10.32,0.251434326
10.32333333,0.254984538
10.32666667,0.22517395
10.33,0.256072998
10.33333333,0.250244141
10.33666667,0.228937785
10.34,0.217956543
10.34333333,0.210784912
10.34666667,0.233840942
10.35,0.235137939
10.35333333,0.280817668
10.35666667,0.241007487
10.36,0.267532349
10.36333333,0.199834188
10.36666667,0.236231486
10.37,0.226913452
10.37333333,0.211624146
10.37666667,0.255584717
10.38,0.252227783
10.38333333,0.292104085
10.38666667,0.319793701
10.39,0.296234131
10.39333333,0.25877889
10.39666667,0.239395142
10.4,0.189819336
10.40333333,0.255554199
10.40666667,0.24991862
10.41,0.186294556
10.41333333,0.275482178
10.41666667,0.270462036
10.42,0.274932861
10.42333333,0.242375692
10.42666667,0.235626221
10.43,0.240493774
10.43333333,0.201568604
10.43666667,0.267105103
10.44,0.206436157
10.44333333,0.243240356
10.44666667,0.264022827
10.45,0.226516724
10.45333333,0.21031189
10.45666667,0.233057658
10.46,0.297332764
10.46333333,0.204096476
10.46666667,0.204671224
10.47,0.268753052
10.47333333,0.263463338
10.47666667,0.251856486
10.48,0.223846436
10.48333333,0.229797363
10.48666667,0.205169678
10.49,0.274169922
10.49333333,0.231953939
10.49666667,0.201680501
10.5,0.248718262
10.50333333,0.242797852
10.50666667,0.265268962
10.51,0.255706787
10.51333333,0.279546102
10.51666667,0.324350993
10.52,0.260192871
10.52333333,0.235488892
10.52666667,0.238657633
10.53,0.248962402
10.53333333,0.256271362
10.53666667,0.250208537
10.54,0.219390869
10.54333333,0.305475871
10.54666667,0.275619507
10.55,0.276412964
10.55333333,0.260309855
10.55666667,0.263158162
10.56,0.230529785
10.56333333,0.253646851
10.56666667,0.257110596
10.57,0.247436523
10.57333333,0.224461873
10.57666667,0.219955444
10.58,0.24446106
10.58333333,0.3074646
10.58666667,0.303726196
10.59,0.274673462
10.59333333,0.275594076
10.59666667,0.328303019
10.6,0.31036377
10.60333333,0.272186279
10.60666667,0.301915487
10.61,0.286132812
10.61333333,0.279734294
10.61666667,0.277404785
10.62,0.283782959
10.62333333,0.250996908
10.62666667,0.239390055
10.63,0.248519897
10.63333333,0.276006063
10.63666667,0.306131999
10.64,0.238632202
10.64333333,0.246373494
10.64666667,0.265675863
10.65,0.213775635
10.65333333,0.292338053
10.65666667,0.26226298
10.66,0.216323853
10.66333333,0.302174886
10.66666667,0.301996867
10.67,0.26802063
10.67333333,0.259353638
10.67666667,0.259811401
10.68,0.286026001
10.68333333,0.254313151
10.68666667,0.249501546
10.69,0.214401245
10.69333333,0.266357422
10.69666667,0.34266154
10.7,0.405807495
10.70333333,0.462493896
10.70666667,0.472284953
10.71,0.55619812
10.71333333,0.486114502
10.71666667,0.463943481
10.72,0.391311646
10.72333333,0.3409729
10.72666667,0.25890096
10.73,0.117736816
10.73333333,0.055847168
10.73666667,0.043497721
10.74,-0.067871094
10.74333333,-0.038635254
10.74666667,-0.119272868
10.75,-0.048446655
10.75333333,0.01431783
10.75666667,0.100886027
10.76,0.101669312
10.76333333,0.152694702
10.76666667,0.224075317
10.77,0.19090271
10.77333333,0.217636108
10.77666667,0.20904541
10.78,0.212417603
10.78333333,0.282796224
10.78666667,0.298060099
10.79,0.242645264
10.79333333,0.262817383
10.79666667,0.271753947
10.8,0.295562744
10.80333333,0.261225382
10.80666667,0.275100708
10.81,0.294937134
10.81333333,0.261810303
10.81666667,0.273412069
10.82,0.273574829
10.82333333,0.276545207
10.82666667,0.276285807
10.83,0.264328003
10.83333333,0.298563639
10.83666667,0.341644287
10.84,0.314849854
10.84333333,0.32723999
10.84666667,0.319702148
10.85,0.267333984
10.85333333,0.281717936
10.85666667,0.25100708
10.86,0.3097229
10.86333333,0.296702067
10.86666667,0.29645284
10.87,0.279922485
10.87333333,0.295394897
10.87666667,0.264902751
10.88,0.338897705
10.88333333,0.368626912
10.88666667,0.357055664
10.89,0.295028687
10.89333333,0.28368632
10.89666667,0.293655396
10.9,0.41343689
10.90333333,0.357096354
10.90666667,0.352300008
10.91,0.379592896
10.91333333,0.370691935
10.91666667,0.426864624
10.92,0.411209106
10.92333333,0.380523682
10.92666667,0.424870809
10.93,0.391143799
10.93333333,0.510075887
10.93666667,0.440536499
10.94,0.466323853
10.94333333,0.483851115
10.94666667,0.485438029
10.95,0.505371094
10.95333333,0.496098836
10.95666667,0.486033122
10.96,0.481369019
10.96333333,0.512954712
10.96666667,0.529123942
10.97,0.509933472
10.97333333,0.521764119
10.97666667,0.513819377
10.98,0.512878418
10.98333333,0.479278564
10.98666667,0.47428894
10.99,0.481430054
10.99333333,0.430679321
10.99666667,0.435841878
11,0.431060791
11.00333333,0.400609334
11.00666667,0.373896281
11.01,0.386901855
11.01333333,0.347325643
11.01666667,0.362065633
11.02,0.371627808
11.02333333,0.322697957
11.02666667,0.333908081
11.03,0.306259155
11.03333333,0.272699992
11.03666667,0.328857422
11.04,0.281707764
11.04333333,0.292088826
11.04666667,0.305348714
11.05,0.3074646
11.05333333,0.298472087
11.05666667,0.303573608
11.06,0.31199646
11.06333333,0.277552287
11.06666667,0.294113159
11.07,0.284759521
11.07333333,0.291809082
11.07666667,0.264139811
11.08,0.257919312
11.08333333,0.283559163
11.08666667,0.301579793
11.09,0.307144165
11.09333333,0.309290568
11.09666667,0.284962972
11.1,0.284194946
11.10333333,0.277603149
11.10666667,0.300089518
11.11,0.279098511
11.11333333,0.336705526
11.11666667,0.304438273
11.12,0.303787231
11.12333333,0.324864705
11.12666667,0.315973918
11.13,0.289382935
11.13333333,0.337168376
11.13666667,0.338088989
11.14,0.284606934
11.14333333,0.273635864
11.14666667,0.270991007
11.15,0.29548645
11.15333333,0.278966268
11.15666667,0.327891032
11.16,0.337738037
11.16333333,0.329421997
11.16666667,0.282923381
11.17,0.340789795
11.17333333,0.321502686
11.17666667,0.319961548
11.18,0.286346436
11.18333333,0.310236613
11.18666667,0.334472656
11.19,0.281585693
11.19333333,0.282033285
11.19666667,0.27301534
11.2,0.343704224
11.20333333,0.316375732
11.20666667,0.326766968
11.21,0.313354492
11.21333333,0.279215495
11.21666667,0.288747152
11.22,0.36100769
11.22333333,0.303166707
11.22666667,0.257105509
11.23,0.275756836
11.23333333,0.282007853
11.23666667,0.327723185
11.24,0.326965332
11.24333333,0.336222331
11.24666667,0.274424235
11.25,0.319671631
11.25333333,0.283187866
11.25666667,0.273788452
11.26,0.272003174
11.26333333,0.301071167
11.26666667,0.295791626
11.27,0.330337524
11.27333333,0.295715332
11.27666667,0.255518595
11.28,0.282546997
11.28333333,0.254211426
11.28666667,0.33152771
11.29,0.271469116
11.29333333,0.321263631
11.29666667,0.35689799
11.3,0.309143066
11.30333333,0.359491984
11.30666667,0.322687785
11.31,0.330566406
11.31333333,0.339553833
11.31666667,0.347900391
11.32,0.32762146
11.32333333,0.329233805
11.32666667,0.313232422
11.33,0.307250977
11.33333333,0.365320841
11.33666667,0.357559204
11.34,0.344940186
11.34333333,0.327351888
11.34666667,0.3352712
11.35,0.301818848
11.35333333,0.289479574
11.35666667,0.292007446
11.36,0.29914856
11.36333333,0.304946899
11.36666667,0.316416423
11.37,0.314788818
11.37333333,0.305765788
11.37666667,0.336888631
11.38,0.27885437
11.38333333,0.317586263
11.38666667,0.326889038
11.39,0.288284302
11.39333333,0.291717529
11.39666667,0.318445841
11.4,0.328445435
11.40333333,0.354329427
11.40666667,0.280400594
11.41,0.237762451
11.41333333,0.284403483
11.41666667,0.296401978
11.42,0.348205566
11.42333333,0.31598409
11.42666667,0.314915975
11.43,0.286407471
11.43333333,0.349324544
11.43666667,0.28914388
11.44,0.274795532
11.44333333,0.288431803
11.44666667,0.261550903
11.45,0.302658081
11.45333333,0.283086141
11.45666667,0.265645345
11.46,0.352127075
11.46333333,0.313980103
11.46666667,0.356114705
11.47,0.328140259
11.47333333,0.362370809
11.47666667,0.304356893
11.48,0.315765381
11.48333333,0.317942301
11.48666667,0.297068278
11.49,0.321548462
11.49333333,0.25177002
11.49666667,0.287246704
11.5,0.30670166
11.50333333,0.282185872
11.50666667,0.239756266
11.51,0.242233276
11.51333333,0.215286255
11.51666667,0.251592
11.52,0.286346436
11.52333333,0.230107625
11.52666667,0.221323649
11.53,0.214447021
11.53333333,0.221303304
11.53666667,0.212610881
11.54,0.213607788
11.54333333,0.242329915
11.54666667,0.185882568
11.55,0.253753662
11.55333333,0.249440511
11.55666667,0.211191813
11.56,0.179672241
11.56333333,0.176773071
11.56666667,0.20787557
11.57,0.198226929
11.57333333,0.231903076
11.57666667,0.198298136
11.58,0.22744751
11.58333333,0.331624349
11.58666667,0.352523804
11.59,0.391067505
11.59333333,0.410008748
11.59666667,0.45014445
11.6,0.540466309
11.60333333,0.515467326
11.60666667,0.429697673
11.61,0.354522705
11.61333333,0.326410929
11.61666667,0.32119751
11.62,0.195541382
11.62333333,0.112823486
11.62666667,0.085957845
11.63,0.073242188
11.63333333,0.001958211
11.63666667,0.031651815
11.64,0.073348999
11.64333333,0.083384196
11.64666667,0.174240112
11.65,0.238571167
11.65333333,0.283894857
11.65666667,0.300526937
11.66,0.288269043
11.66333333,0.287694295
11.66666667,0.247573853
11.67,0.327728271
11.67333333,0.29574585
11.67666667,0.283243815
11.68,0.334075928
11.68333333,0.342432658
11.68666667,0.309707642
11.69,0.295074463
11.69333333,0.294194539
11.69666667,0.313161214
11.7,0.278091431
11.70333333,0.28582255
11.70666667,0.246312459
11.71,0.266357422
11.71333333,0.316233317
11.71666667,0.333404541
11.72,0.286453247
11.72333333,0.287033081
11.72666667,0.330169678
11.73,0.261459351
11.73333333,0.300827026
11.73666667,0.304504395
11.74,0.255325317
11.74333333,0.246103923
11.74666667,0.296702067
11.75,0.356674194
11.75333333,0.351567586
11.75666667,0.333206177
11.76,0.299499512
11.76333333,0.317906698
11.76666667,0.372823079
11.77,0.344650269
11.77333333,0.314020793
11.77666667,0.324615479
11.78,0.373550415
11.78333333,0.303624471
11.78666667,0.347625732
11.79,0.393630981
11.79333333,0.357386271
11.79666667,0.377950033
11.8,0.362091064
11.80333333,0.412058512
11.80666667,0.398976644
11.81,0.426498413
11.81333333,0.475662231
11.81666667,0.39159139
11.82,0.421401978
11.82333333,0.452575684
11.82666667,0.446141561
11.83,0.398162842
11.83333333,0.480143229
11.83666667,0.45022583
11.84,0.467269897
11.84333333,0.466145833
11.84666667,0.447784424
11.85,0.481033325
11.85333333,0.546890259
11.85666667,0.486582438
11.86,0.528030396
11.86333333,0.528737386
11.86666667,0.476811727
11.87,0.431228638
11.87333333,0.452514648
11.87666667,0.455495199
11.88,0.429611206
11.88333333,0.467554728
11.88666667,0.447102865
11.89,0.39630127
11.89333333,0.370452881
11.89666667,0.360168457
11.9,0.31867981
11.90333333,0.315424601
11.90666667,0.306981405
11.91,0.281707764
11.91333333,0.278213501
11.91666667,0.289662679
11.92,0.274505615
11.92333333,0.212270101
11.92666667,0.235677083
11.93,0.222640991
11.93333333,0.252863566
11.93666667,0.209955851
11.94,0.232254028
11.94333333,0.224843343
11.94666667,0.227635701
11.95,0.257949829
11.95333333,0.233042399
11.95666667,0.232543945
11.96,0.261627197
11.96333333,0.221766154
11.96666667,0.237553914
11.97,0.190872192
11.97333333,0.222386678
11.97666667,0.210306803
11.98,0.191482544
11.98333333,0.214691162
11.98666667,0.22891744
11.99,0.206787109
11.99333333,0.244435628
11.99666667,0.317652384
12,0.281906128
12.00333333,0.259923299
12.00666667,0.269536336
12.01,0.253295898
12.01333333,0.238769531
12.01666667,0.236841838
12.02,0.255661011
12.02333333,0.318995158
12.02666667,0.306849162
12.03,0.239746094
12.03333333,0.25525411
12.03666667,0.279129028
12.04,0.277297974
12.04333333,0.321802775
12.04666667,0.288696289
12.05,0.328598022
12.05333333,0.295984904
12.05666667,0.339279175
12.06,0.303482056
12.06333333,0.289260864
12.06666667,0.344136556
12.07,0.329818726
12.07333333,0.285924276
12.07666667,0.305435181
12.08,0.308563232
12.08333333,0.293095907
12.08666667,0.245966593
12.09,0.229446411
12.09333333,0.246261597
12.09666667,0.237548828
12.1,0.298233032
12.10333333,0.258961995
12.10666667,0.282928467
12.11,0.283828735
12.11333333,0.246663411
12.11666667,0.290120443
12.12,0.239135742
12.12333333,0.224370321
12.12666667,0.224192301
12.13,0.222991943
12.13333333,0.219930013
12.13666667,0.224329631
12.14,0.227279663
12.14333333,0.237843831
12.14666667,0.20274353
12.15,0.181427002
12.15333333,0.231038411
12.15666667,0.25553894
12.16,0.209777832
12.16333333,0.26797994
12.16666667,0.24172465
12.17,0.235443115
12.17333333,0.187464396
12.17666667,0.169916789
12.18,0.194869995
12.18333333,0.22664388
12.18666667,0.241928101
12.19,0.13861084
12.19333333,0.274068197
12.19666667,0.273661296
12.2,0.271072388
12.20333333,0.240224202
12.20666667,0.254313151
12.21,0.220733643
12.21333333,0.215291341
12.21666667,0.225245158
12.22,0.227661133
12.22333333,0.243321737
12.22666667,0.216410319
12.23,0.19039917
12.23333333,0.218251546
12.23666667,0.236287435
12.24,0.198928833
12.24333333,0.216995239
12.24666667,0.187876383
12.25,0.183868408
12.25333333,0.170954386
12.25666667,0.198481242
12.26,0.211776733
12.26333333,0.222590129
12.26666667,0.24693807
12.27,0.194778442
12.27333333,0.204538981
12.27666667,0.230036418
12.28,0.179458618
12.28333333,0.166371663
12.28666667,0.204859416
12.29,0.165252686
12.29333333,0.154459635
12.29666667,0.25306193
12.3,0.217971802
12.30333333,0.211390177
12.30666667,0.156682332
12.31,0.192367554
12.31333333,0.192830404
12.31666667,0.181935628
12.32,0.183197021
12.32333333,0.144307454
12.32666667,0.160970052
12.33,0.207870483
12.33333333,0.188191732
12.33666667,0.165425618
12.34,0.216583252
12.34333333,0.215037028
12.34666667,0.161682129
12.35,0.218811035
12.35333333,0.236597697
12.35666667,0.201370239
12.36,0.237487793
12.36333333,0.184987386
12.36666667,0.222244263
12.37,0.249435425
12.37333333,0.22261556
12.37666667,0.228820801
12.38,0.239761353
12.38333333,0.203323364
12.38666667,0.260818481
12.39,0.252731323
12.39333333,0.289840698
12.39666667,0.237960815
12.4,0.212631226
12.40333333,0.252482096
12.40666667,0.251317342
12.41,0.280990601
12.41333333,0.255950928
12.41666667,0.238545736
12.42,0.273849487
12.42333333,0.259882609
12.42666667,0.243225098
12.43,0.266662598
12.43333333,0.280227661
12.43666667,0.25970459
12.44,0.198226929
12.44333333,0.252960205
12.44666667,0.287165324
12.45,0.214920044
12.45333333,0.244995117
12.45666667,0.218958537
12.46,0.167449951
12.46333333,0.169728597
12.46666667,0.217056274
12.47,0.219345093
12.47333333,0.254165649
12.47666667,0.233240763
12.48,0.220855713
12.48333333,0.238723755
12.48666667,0.235565186
12.49,0.209182739
12.49333333,0.210657756
12.49666667,0.217234294
12.5,0.248718262
12.50333333,0.233149211
12.50666667,0.160985311
12.51,0.106887817
12.51333333,0.139485677
12.51666667,0.224405924
12.52,0.200897217
12.52333333,0.151077271
12.52666667,0.136932373
12.53,0.209701538
12.53333333,0.234654744
12.53666667,0.222147624
12.54,0.21383667
12.54333333,0.208638509
12.54666667,0.200642904
12.55,0.174484253
12.55333333,0.24806722
12.55666667,0.185379028
12.56,0.177947998
12.56333333,0.212188721
12.56666667,0.214080811
12.57,0.237686157
12.57333333,0.142074585
12.57666667,0.177942912
12.58,0.236053467
12.58333333,0.306955973
12.58666667,0.370178223
12.59,0.385726929
12.59333333,0.433980306
12.59666667,0.49260966
12.6,0.442657471
12.60333333,0.459996541
12.60666667,0.442469279
12.61,0.383468628
12.61333333,0.316319784
12.61666667,0.240936279
12.62,0.173950195
12.62333333,0.035446167
12.62666667,-0.074656169
12.63,-0.011642456
12.63333333,-0.024922689
12.63666667,-0.023569743
12.64,0.032318115
12.64333333,0.077479045
12.64666667,0.214782715
12.65,0.202789307
12.65333333,0.255803426
12.65666667,0.23038737
12.66,0.265167236
12.66333333,0.274383545
12.66666667,0.267155965
12.67,0.26399231
12.67333333,0.286682129
12.67666667,0.26717631
12.68,0.310714722
12.68333333,0.293858846
12.68666667,0.251342773
12.69,0.299697876
12.69333333,0.285390218
12.69666667,0.30821228
12.7,0.296478271
12.70333333,0.266504924
12.70666667,0.266850789
12.71,0.278442383
12.71333333,0.280024211
12.71666667,0.303751628
12.72,0.287155151
12.72333333,0.269765218
12.72666667,0.269037882
12.73,0.313079834
12.73333333,0.266774495
12.73666667,0.324900309
12.74,0.313400269
12.74333333,0.328399658
12.74666667,0.338897705
12.75,0.342559814
12.75333333,0.312942505
12.75666667,0.283137004
12.76,0.36076355
12.76333333,0.33891805
12.76666667,0.348561605
12.77,0.341110229
12.77333333,0.319341024
12.77666667,0.353052775
12.78,0.335083008
12.78333333,0.317866007
12.78666667,0.412307739
12.79,0.358215332
12.79333333,0.358907064
12.79666667,0.374593099
12.8,0.388641357
12.80333333,0.368204753
12.80666667,0.397059123
12.81,0.378982544
12.81333333,0.40608724
12.81666667,0.457941691
12.82,0.439361572
12.82333333,0.458251953
12.82666667,0.445704142
12.83,0.400405884
12.83333333,0.445429484
12.83666667,0.459035238
12.84,0.401535034
12.84333333,0.400517782
12.84666667,0.42972819
12.85,0.472717285
12.85333333,0.506947835
12.85666667,0.468180339
12.86,0.455764771
12.86333333,0.397079468
12.86666667,0.401051839
12.87,0.395126343
12.87333333,0.364191691
12.87666667,0.456151326
12.88,0.40007019
12.88333333,0.387700399
12.88666667,0.394053141
12.89,0.386566162
12.89333333,0.345306396
12.89666667,0.349349976
12.9,0.294265747
12.90333333,0.270284017
12.90666667,0.244135539
12.91,0.291320801
12.91333333,0.227096558
12.91666667,0.259145101
12.92,0.247650146
12.92333333,0.223556519
12.92666667,0.21152242
12.93,0.191680908
12.93333333,0.181935628
12.93666667,0.223739624
12.94,0.224456787
12.94333333,0.226826986
12.94666667,0.224965413
12.95,0.208435059
12.95333333,0.220626831
12.95666667,0.263916016
12.96,0.180541992
12.96333333,0.183700562
12.96666667,0.189921061
12.97,0.2684021
12.97333333,0.230606079
12.97666667,0.203180949
12.98,0.169052124
12.98333333,0.182723999
12.98666667,0.143193563
12.99,0.148620605
12.99333333,0.165608724
12.99666667,0.18085734
13,0.160980225
13.00333333,0.224782308
13.00666667,0.144495646
13.01,0.163986206
13.01333333,0.163431803
13.01666667,0.183029175
13.02,0.129180908
13.02333333,0.131123861
13.02666667,0.110783895
13.03,0.131607056
13.03333333,0.106531779
13.03666667,0.126205444
13.04,0.136825562
13.04333333,0.14243571
13.04666667,0.13293457
13.05,0.111846924
13.05333333,0.171544393
13.05666667,0.126902262
13.06,0.102676392
13.06333333,0.100819906
13.06666667,0.129038493
13.07,0.13671875
13.07333333,0.091990153
13.07666667,0.12731425
13.08,0.138870239
13.08333333,0.178909302
13.08666667,0.101694743
13.09,0.090988159
13.09333333,0.09181722
13.09666667,0.16641744
13.1,0.113754272
13.10333333,0.126790365
13.10666667,0.17338562
13.11,0.148910522
13.11333333,0.135396322
13.11666667,0.17695109
13.12,0.14453125
13.12333333,0.160603841
13.12666667,0.16662089
13.13,0.15234375
13.13333333,0.140329997
13.13666667,0.137039185
13.14,0.119049072
13.14333333,0.116338094
13.14666667,0.135238647
13.15,0.114364624
13.15333333,0.149353027
13.15666667,0.133097331
13.16,0.156661987
13.16333333,0.128860474
13.16666667,0.168100993
13.17,0.102783203
13.17333333,0.129267375
13.17666667,0.110916138
13.18,0.125259399
13.18333333,0.178934733
13.18666667,0.157974243
13.19,0.156280518
13.19333333,0.17271932
13.19666667,0.179255168
13.2,0.160217285
13.20333333,0.157394409
13.20666667,0.178319295
13.21,0.123123169
13.21333333,0.124674479
13.21666667,0.198135376
13.22,0.183181763
13.22333333,0.137212118
13.22666667,0.134821574
13.23,0.162307739
13.23333333,0.142110189
13.23666667,0.175125122
13.24,0.179382324
13.24333333,0.144627889
13.24666667,0.141301473
13.25,0.168228149
13.25333333,0.149393717
13.25666667,0.148854574
13.26,0.180892944
13.26333333,0.146535238
13.26666667,0.153045654
13.27,0.176239014
13.27333333,0.181803385
13.27666667,0.189971924
13.28,0.178649902
13.28333333,0.211283366
13.28666667,0.247294108
13.29,0.230575562
13.29333333,0.250981649
13.29666667,0.19078064
13.3,0.185470581
13.30333333,0.203592936
13.30666667,0.211110433
13.31,0.191314697
13.31333333,0.181737264
13.31666667,0.150655111
13.32,0.186462402
13.32333333,0.200281779
13.32666667,0.166610718
13.33,0.181762695
13.33333333,0.165430705
13.33666667,0.131296794
13.34,0.149124146
13.34333333,0.154505412
13.34666667,0.204111735
13.35,0.202789307
13.35333333,0.173197428
13.35666667,0.210795085
13.36,0.179244995
13.36333333,0.161448161
13.36666667,0.160878499
13.37,0.167144775
13.37333333,0.135147095
13.37666667,0.157109578
13.38,0.192550659
13.38333333,0.202306112
13.38666667,0.151662191
13.39,0.199417114
13.39333333,0.171585083
13.39666667,0.167622884
13.4,0.164489746
13.40333333,0.200871785
13.40666667,0.197530111
13.41,0.151824951
13.41333333,0.187026978
13.41666667,0.179799398
13.42,0.169647217
13.42333333,0.216405233
13.42666667,0.217890422
13.43,0.220108032
13.43333333,0.183283488
13.43666667,0.173675537
13.44,0.217041016
13.44333333,0.236938477
13.44666667,0.177637736
13.45,0.241317749
13.45333333,0.278401693
13.45666667,0.230133057
13.46,0.192504883
13.46333333,0.225158691
13.46666667,0.225245158
13.47,0.169113159
13.47333333,0.152598063
13.47666667,0.196487427
13.48,0.190979004
13.48333333,0.190429688
13.48666667,0.162027995
13.49,0.153991699
13.49333333,0.180791219
13.49666667,0.183985392
13.5,0.200653076
13.50333333,0.209915161
13.50666667,0.188028971
13.51,0.206970215
13.51333333,0.208221436
13.51666667,0.217514038
13.52,0.187469482
13.52333333,0.166956584
13.52666667,0.217096965
13.53,0.216751099
13.53333333,0.244089762
13.53666667,0.242685954
13.54,0.190368652
13.54333333,0.230392456
13.54666667,0.213109334
13.55,0.241394043
13.55333333,0.213628133
13.55666667,0.219106038
13.56,0.212127686
13.56333333,0.19271342
13.56666667,0.194473267
13.57,0.216888428
13.57333333,0.215301514
13.57666667,0.237869263
13.58,0.263763428
13.58333333,0.258382161
13.58666667,0.262166341
13.59,0.232559204
13.59333333,0.242060343
13.59666667,0.191970825
13.6,0.196228027
13.60333333,0.238611857
13.60666667,0.26739502
13.61,0.282272339
13.61333333,0.285232544
13.61666667,0.264841715
13.62,0.267700195
13.62333333,0.232447306
13.62666667,0.22567749
13.63,0.287734985
13.63333333,0.30553182
13.63666667,0.418863932
13.64,0.428039551
13.64333333,0.483683268
13.64666667,0.546223958
13.65,0.531539917
13.65333333,0.517359416
13.65666667,0.454950968
13.66,0.366470337
13.66333333,0.318527222
13.66666667,0.245157878
13.67,0.136138916
13.67333333,0.05510966
13.67666667,-0.041992188
13.68,-0.090042114
13.68333333,-0.086110433
13.68666667,-0.041712443
13.69,0.005554199
13.69333333,0.060638428
13.69666667,0.107681274
13.7,0.151367188
13.70333333,0.226765951
13.70666667,0.183848063
13.71,0.181304932
13.71333333,0.197168986
13.71666667,0.191930135
13.72,0.183334351
13.72333333,0.198816935
13.72666667,0.235473633
13.73,0.242080688
13.73333333,0.160649618
13.73666667,0.215123494
13.74,0.204437256
13.74333333,0.237503052
13.74666667,0.225606283
13.75,0.229263306
13.75333333,0.274129232
13.75666667,0.249750773
13.76,0.24710083
13.76333333,0.236277262
13.76666667,0.212682088
13.77,0.202285767
13.77333333,0.249338786
13.77666667,0.23155721
13.78,0.242385864
13.78333333,0.275268555
13.78666667,0.29011027
13.79,0.272079468
13.79333333,0.320668538
13.79666667,0.305033366
13.8,0.303344727
13.80333333,0.290929159
13.80666667,0.28922526
13.81,0.258544922
13.81333333,0.266113281
13.81666667,0.310541789
13.82,0.281280518
13.82333333,0.2962087
13.82666667,0.303624471
13.83,0.311706543
13.83333333,0.305811564
13.83666667,0.331176758
13.84,0.320587158
13.84333333,0.32665507
13.84666667,0.343373617
13.85,0.327758789
13.85333333,0.346394857
13.85666667,0.365346273
13.86,0.380752563
13.86333333,0.384328206
13.86666667,0.363616943
13.87,0.328857422
13.87333333,0.357569377
13.87666667,0.36509196
13.88,0.390426636
13.88333333,0.374476115
13.88666667,0.325963338
13.89,0.334411621
13.89333333,0.401387533
13.89666667,0.354695638
13.9,0.453948975
13.90333333,0.451237996
13.90666667,0.381474813
13.91,0.407913208
13.91333333,0.389907837
13.91666667,0.407536825
13.92,0.492828369
13.92333333,0.437616984
13.92666667,0.382680257
13.93,0.344528198
13.93333333,0.339736938
13.93666667,0.347640991
13.94,0.350219727
13.94333333,0.29671224
13.94666667,0.2831014
13.95,0.305404663
13.95333333,0.272145589
13.95666667,0.247665405
13.96,0.256973267
13.96333333,0.214909871
13.96666667,0.188064575
13.97,0.151504517
13.97333333,0.134958903
13.97666667,0.096466064
13.98,0.135467529
13.98333333,0.195846558
13.98666667,0.142313639
13.99,0.148742676
13.99333333,0.129241943
13.99666667,0.136245728
14,0.147628784
14.00333333,0.18145752
14.00666667,0.160542806
14.01,0.120162964
14.01333333,0.104985555
14.01666667,0.115280151
14.02,0.200592041
14.02333333,0.155822754
14.02666667,0.144968669
14.03,0.156417847
14.03333333,0.147247314
14.03666667,0.088719686
14.04,0.222747803
14.04333333,0.138916016
14.04666667,0.150878906
14.05,0.132446289
14.05333333,0.118804932
14.05666667,0.131800334
14.06,0.096008301
14.06333333,0.108515422
14.06666667,0.078201294
14.07,0.125
14.07333333,0.129348755
14.07666667,0.130971273
14.08,0.122238159
14.08333333,0.066121419
14.08666667,0.087855021
14.09,0.100067139
14.09333333,0.138905843
14.09666667,0.133168538
14.1,0.153427124
14.10333333,0.131891886
14.10666667,0.149597168
14.11,0.105133057
14.11333333,0.123962402
14.11666667,0.11932373
14.12,0.101455688
14.12333333,0.112604777
14.12666667,0.134394328
14.13,0.123001099
14.13333333,0.147145589
14.13666667,0.15906779
14.14,0.151168823
14.14333333,0.160552979
14.14666667,0.141998291
14.15,0.157241821
14.15333333,0.139943441
14.15666667,0.122599284
14.16,0.133453369
14.16333333,0.191289266
14.16666667,0.188827515
14.17,0.124176025
14.17333333,0.196512858
14.17666667,0.170216878
14.18,0.148910522
14.18333333,0.187174479
14.18666667,0.165883382
14.19,0.180709839
14.19333333,0.13772583
14.19666667,0.146092733
14.2,0.185928345
14.20333333,0.166849772
14.20666667,0.112050374
14.21,0.177993774
14.21333333,0.093821208
14.21666667,0.095113118
14.22,0.087234497
14.22333333,0.128473918
14.22666667,0.113769531
14.23,0.155410767
14.23333333,0.152231852
14.23666667,0.155029297
14.24,0.112060547
14.24333333,0.142333984
14.24666667,0.148946126
14.25,0.157928467
14.25333333,0.177937826
14.25666667,0.171279907
14.26,0.176147461
14.26333333,0.188924154
14.26666667,0.212300618
14.27,0.170135498
14.27333333,0.19678243
14.27666667,0.228805542
14.28,0.195373535
14.28333333,0.202891032
14.28666667,0.186930339
14.29,0.251403809
14.29333333,0.184529622
14.29666667,0.240763346
14.3,0.248336792
14.30333333,0.216247559
14.30666667,0.215159098
14.31,0.231811523
14.31333333,0.205795288
14.31666667,0.245539347
14.32,0.214553833
14.32333333,0.222142537
14.32666667,0.231343587
14.33,0.213241577
14.33333333,0.295511882
14.33666667,0.245417277
14.34,0.216903687
14.34333333,0.27444458
14.34666667,0.262878418
14.35,0.252761841
14.35333333,0.311559041
14.35666667,0.291188558
14.36,0.259155273
14.36333333,0.274078369
14.36666667,0.217412313
14.37,0.326065063
14.37333333,0.246037801
14.37666667,0.292577108
14.38,0.2603302
14.38333333,0.28889974
14.38666667,0.272333781
14.39,0.24559021
14.39333333,0.305058797
14.39666667,0.280420939
14.4,0.307312012
14.40333333,0.270411174
14.40666667,0.269373576
14.41,0.272018433
14.41333333,0.250879924
14.41666667,0.26512146
14.42,0.282485962
14.42333333,0.25811259
14.42666667,0.248168945
14.43,0.239807129
14.43333333,0.293477376
14.43666667,0.248936971
14.44,0.207199097
14.44333333,0.237126668
14.44666667,0.325942993
14.45,0.307846069
14.45333333,0.303975423
14.45666667,0.258850098
14.46,0.275177002
14.46333333,0.26620992
14.46666667,0.265604655
14.47,0.278259277
14.47333333,0.231109619
14.47666667,0.263539632
14.48,0.260162354
14.48333333,0.256322225
14.48666667,0.231043498
14.49,0.213760376
14.49333333,0.185740153
14.49666667,0.247095744
14.5,0.283813477
14.50333333,0.266840617
14.50666667,0.226079305
14.51,0.254425049
14.51333333,0.218592326
14.51666667,0.262247721
14.52,0.26864624
14.52333333,0.249506632
14.52666667,0.24021403
14.53,0.235076904
14.53333333,0.24676005
14.53666667,0.224151611
14.54,0.199752808
14.54333333,0.201527913
14.54666667,0.205637614
14.55,0.236434937
14.55333333,0.239929199
14.55666667,0.246088664
14.56,0.25289917
14.56333333,0.239598592
14.56666667,0.259552002
14.57,0.238006592
14.57333333,0.183456421
14.57666667,0.237442017
14.58,0.188308716
14.58333333,0.25583903
14.58666667,0.234059652
14.59,0.225418091
14.59333333,0.228586833
14.59666667,0.24891154
14.6,0.296325684
14.60333333,0.298090617
14.60666667,0.260096232
14.61,0.253295898
14.61333333,0.280400594
14.61666667,0.246022542
14.62,0.238647461
14.62333333,0.213775635
14.62666667,0.124903361
14.63,0.12020874
14.63333333,0.095163981
14.63666667,0.14906311
14.64,0.142242432
14.64333333,0.119979858
14.64666667,0.122238159
14.65,0.236282349
14.65333333,0.166503906
14.65666667,0.130106608
14.66,0.160995483
14.66333333,0.165349325
14.66666667,0.170898438
14.67,0.154876709
14.67333333,0.156326294
14.67666667,0.135721842
14.68,0.160202026
14.68333333,0.185089111
14.68666667,0.151067098
14.69,0.174972534
14.69333333,0.199890137
14.69666667,0.194173177
14.7,0.19859314
14.70333333,0.255615234
14.70666667,0.248057048
14.71,0.274291992
14.71333333,0.405970256
14.71666667,0.413208008
14.72,0.514923096
14.72333333,0.466328939
14.72666667,0.459940592
14.73,0.369232178
14.73333333,0.347722371
14.73666667,0.252187093
14.74,0.281890869
14.74333333,0.129272461
14.74666667,0.05430603
14.75,-0.043106079
14.75333333,-0.074824015
14.75666667,-0.116175334
14.76,-0.063079834
14.76333333,-0.008560181
14.76666667,0.009078979
14.77,0.051452637
14.77333333,0.087997437
14.77666667,0.15335083
14.78,0.17565918
14.78333333,0.241088867
14.78666667,0.182296753
14.79,0.142456055
14.79333333,0.137812297
14.79666667,0.208908081
14.8,0.220489502
14.80333333,0.245015462
14.80666667,0.212295532
14.81,0.229949951
14.81333333,0.206415812
14.81666667,0.266723633
14.82,0.287612915
14.82333333,0.292521159
14.82666667,0.270263672
14.83,0.272705078
14.83333333,0.2562205
14.83666667,0.24559021
14.84,0.210342407
14.84333333,0.248962402
14.84666667,0.262252808
14.85,0.302505493
14.85333333,0.311157227
14.85666667,0.313613892
14.86,0.296020508
14.86333333,0.297739665
14.86666667,0.300572713
14.87,0.266372681
14.87333333,0.289505005
14.87666667,0.268239339
14.88,0.307861328
14.88333333,0.342203776
14.88666667,0.315811157
14.89,0.351577759
14.89333333,0.325902303
14.89666667,0.360026042
14.9,0.348815918
14.90333333,0.398503621
14.90666667,0.380966187
14.91,0.383544922
14.91333333,0.427693685
14.91666667,0.432332357
14.92,0.44418335
14.92333333,0.458877563
14.92666667,0.444188436
14.93,0.450469971
14.93333333,0.449345907
14.93666667,0.385513306
14.94,0.422851563
14.94333333,0.44640096
14.94666667,0.45342509
14.95,0.447158813
14.95333333,0.52498881
14.95666667,0.490097046
14.96,0.507644653
14.96333333,0.506500244
14.96666667,0.518086751
14.97,0.466659546
14.97333333,0.546056112
14.97666667,0.527781169
14.98,0.510025024
14.98333333,0.521901449
14.98666667,0.590774536
14.99,0.536331177
14.99333333,0.54653422
14.99666667,0.53364563
15,0.564956665
15.00333333,0.511072795
15.00666667,0.478546143
15.01,0.475738525
15.01333333,0.471048991
15.01666667,0.501149495
15.02,0.451034546
15.02333333,0.439198812
15.02666667,0.388885498
15.03,0.365951538
15.03333333,0.352554321
15.03666667,0.305292765
15.04,0.306365967
15.04333333,0.344940186
15.04666667,0.34018453
15.05,0.297164917
15.05333333,0.30581665
15.05666667,0.238718669
15.06,0.23387146
15.06333333,0.258758545
15.06666667,0.244064331
15.07,0.220733643
15.07333333,0.256286621
15.07666667,0.318328857
15.08,0.278564453
15.08333333,0.257873535
15.08666667,0.266769409
15.09,0.260955811
15.09333333,0.228118896
15.09666667,0.254308065
15.1,0.239944458
15.10333333,0.283477783
15.10666667,0.274617513
15.11,0.259414673
15.11333333,0.266611735
15.11666667,0.280431112
15.12,0.276580811
15.12333333,0.245285034
15.12666667,0.226791382
15.13,0.226242065
15.13333333,0.23958842
15.13666667,0.240498861
15.14,0.306472778
15.14333333,0.260625203
15.14666667,0.235458374
15.15,0.250778198
15.15333333,0.301350911
15.15666667,0.305821737
15.16,0.286880493
15.16333333,0.303049723
15.16666667,0.290171305
15.17,0.303192139
15.17333333,0.310572306
15.17666667,0.278111776
15.18,0.243942261
15.18333333,0.243199666
15.18666667,0.320114136
15.19,0.292297363
15.19333333,0.320083618
15.19666667,0.268254598
15.2,0.265808105
15.20333333,0.265253703
15.20666667,0.309539795
15.21,0.2684021
15.21333333,0.287094116
15.21666667,0.259831746
15.22,0.310012817
15.22333333,0.257954915
15.22666667,0.26508077
15.23,0.240280151
15.23333333,0.263595581
15.23666667,0.325337728
15.24,0.291809082
15.24333333,0.274002075
15.24666667,0.268046061
15.25,0.262451172
15.25333333,0.305089315
15.25666667,0.324696859
15.26,0.283782959
15.26333333,0.292592367
15.26666667,0.282770793
15.27,0.261016846
15.27333333,0.220606486
15.27666667,0.24512736
15.28,0.233673096
15.28333333,0.224202474
15.28666667,0.220753988
15.29,0.217956543
15.29333333,0.287679036
15.29666667,0.28864034
15.3,0.245819092
15.30333333,0.261433919
15.30666667,0.260579427
15.31,0.240219116
15.31333333,0.258504232
15.31666667,0.311813354
15.32,0.291366577
15.32333333,0.225540161
15.32666667,0.236104329
15.33,0.258392334
15.33333333,0.265884399
15.33666667,0.293034871
15.34,0.262420654
15.34333333,0.286422729
15.34666667,0.317408244
15.35,0.27633667
15.35333333,0.319025675
15.35666667,0.297205607
15.36,0.281021118
15.36333333,0.297124227
15.36666667,0.324834188
15.37,0.303573608
15.37333333,0.277654012
15.37666667,0.273320516
15.38,0.27293396
15.38333333,0.292841593
15.38666667,0.307840983
15.39,0.277999878
15.39333333,0.309076945
15.39666667,0.325749715
15.4,0.281066895
15.40333333,0.317108154
15.40666667,0.28763326
15.41,0.314407349
15.41333333,0.321980794
15.41666667,0.304412842
15.42,0.288238525
15.42333333,0.263285319
15.42666667,0.242808024
15.43,0.246627808
15.43333333,0.30708313
15.43666667,0.281560262
15.44,0.307556152
15.44333333,0.323598226
15.44666667,0.308258057
15.45,0.340423584
15.45333333,0.3131663
15.45666667,0.306543986
15.46,0.305328369
15.46333333,0.291280111
15.46666667,0.32758077
15.47,0.283035278
15.47333333,0.318227132
15.47666667,0.371729533
15.48,0.313659668
15.48333333,0.313008626
15.48666667,0.267781576
15.49,0.267166138
15.49333333,0.339747111
15.49666667,0.342676799
15.5,0.365447998
15.50333333,0.32577006
15.50666667,0.323954264
15.51,0.307357788
15.51333333,0.312001546
15.51666667,0.294621785
15.52,0.260299683
15.52333333,0.277338664
15.52666667,0.28314209
15.53,0.24961853
15.53333333,0.261077881
15.53666667,0.271443685
15.54,0.264846802
15.54333333,0.293070475
15.54666667,0.279932658
15.55,0.27885437
15.55333333,0.276982625
15.55666667,0.274897257
15.56,0.325119019
15.56333333,0.309427897
15.56666667,0.298105876
15.57,0.315338135
15.57333333,0.28288269
15.57666667,0.30061849
15.58,0.265472412
15.58333333,0.27402242
15.58666667,0.283966064
15.59,0.261169434
15.59333333,0.241292318
15.59666667,0.257492065
15.6,0.250854492
15.60333333,0.294413249
15.60666667,0.317311605
15.61,0.295181274
15.61333333,0.277491252
15.61666667,0.297088623
15.62,0.288970947
15.62333333,0.333063761
15.62666667,0.308415731
15.63,0.218658447
15.63333333,0.352656047
15.63666667,0.356511434
15.64,0.279403687
15.64333333,0.256128947
15.64666667,0.2674764
15.65,0.320205688
15.65333333,0.281743368
15.65666667,0.260182699
15.66,0.296508789
15.66333333,0.300079346
15.66666667,0.298563639
15.67,0.312423706
15.67333333,0.319864909
15.67666667,0.27919515
15.68,0.269256592
15.68333333,0.257517497
15.68666667,0.344278971
15.69,0.277252197
15.69333333,0.276062012
15.69666667,0.314041138
15.7,0.277099609
15.70333333,0.252334595
15.70666667,0.244486491
15.71,0.214065552
15.71333333,0.261169434
15.71666667,0.306040446
15.72,0.258163452
15.72333333,0.349253337
15.72666667,0.346832275
15.73,0.429794312
15.73333333,0.477371216
15.73666667,0.523590088
15.74,0.488739014
15.74333333,0.421986898
15.74666667,0.350835164
15.75,0.320053101
15.75333333,0.217386882
15.75666667,0.08799235
15.76,0.085739136
15.76333333,0.022359212
15.76666667,-0.008595785
15.77,-0.069442749
15.77333333,-0.086751302
15.77666667,-0.055913289
15.78,-0.034286499
15.78333333,0.006866455
15.78666667,0.129084269
15.79,0.144271851
15.79333333,0.182881673
15.79666667,0.22475179
15.8,0.273361206
15.80333333,0.220108032
15.80666667,0.187210083
15.81,0.239425659
15.81333333,0.2118632
15.81666667,0.293528239
15.82,0.298995972
15.82333333,0.279754639
15.82666667,0.235310872
15.83,0.20501709
15.83333333,0.233332316
15.83666667,0.288101196
15.84,0.277175903
15.84333333,0.250813802
15.84666667,0.245061239
15.85,0.2784729
15.85333333,0.281987508
15.85666667,0.305175781
15.86,0.280960083
15.86333333,0.250086466
15.86666667,0.285797119
15.87,0.302825928
15.87333333,0.360555013
15.87666667,0.339879354
15.88,0.339279175
15.88333333,0.342000326
15.88666667,0.324503581
15.89,0.322433472
15.89333333,0.315882365
15.89666667,0.313624064
15.9,0.327072144
15.90333333,0.336725871
15.90666667,0.306381226
15.91,0.305206299
15.91333333,0.338083903
15.91666667,0.376383464
15.92,0.351959229
15.92333333,0.324625651
15.92666667,0.373143514
15.93,0.422073364
15.93333333,0.368855794
15.93666667,0.362157186
15.94,0.363204956
15.94333333,0.440124512
15.94666667,0.406143188
15.95,0.446853638
15.95333333,0.456629435
15.95666667,0.461730957
15.96,0.438186646
15.96333333,0.434402466
15.96666667,0.455144246
15.97,0.518692017
15.97333333,0.525563558
15.97666667,0.48475647
15.98,0.455978394
15.98333333,0.512517293
15.98666667,0.575052897
15.99,0.545715332
15.99333333,0.5305837
15.99666667,0.507746379
16,0.556945801
16.00333333,0.566513062
16.00666667,0.597508748
16.01,0.578735352
16.01333333,0.537897746
16.01666667,0.541763306
16.02,0.529830933
16.02333333,0.509338379
16.02666667,0.511876424
16.03,0.466461182
16.03333333,0.503540039
16.03666667,0.472605387
16.04,0.444580078
16.04333333,0.419026693
16.04666667,0.366821289
16.05,0.410308838
16.05333333,0.391489665
16.05666667,0.348551432
16.06,0.309524536
16.06333333,0.297887166
16.06666667,0.347137451
16.07,0.335632324
16.07333333,0.325159709
16.07666667,0.337387085
16.08,0.348968506
16.08333333,0.281143188
16.08666667,0.322555542
16.09,0.296691895
16.09333333,0.255223592
16.09666667,0.313293457
16.1,0.313034058
16.10333333,0.277048747
16.10666667,0.326807658
16.11,0.391098022
16.11333333,0.333399455
16.11666667,0.293095907
16.12,0.311645508
16.12333333,0.272557576
16.12666667,0.284464518
16.13,0.264709473
16.13333333,0.293960571
16.13666667,0.321777344
16.14,0.298980713
16.14333333,0.293223063
16.14666667,0.325586955
16.15,0.307006836
16.15333333,0.264973958
16.15666667,0.259343465
16.16,0.266403198
16.16333333,0.270665487
16.16666667,0.273640951
16.17,0.285827637
16.17333333,0.290018717
16.17666667,0.269683838
16.18,0.293151855
16.18333333,0.309651693
16.18666667,0.284718831
16.19,0.226394653
16.19333333,0.309143066
16.19666667,0.267985026
16.2,0.251235962
16.20333333,0.278152466
16.20666667,0.227437337
16.21,0.256774902
16.21333333,0.263839722
16.21666667,0.291875203
16.22,0.266799927
16.22333333,0.252258301
16.22666667,0.244359334
16.23,0.278198242
16.23333333,0.311686198
16.23666667,0.306838989
16.24,0.257019043
16.24333333,0.295379639
16.24666667,0.247929891
16.25,0.262451172
16.25333333,0.249557495
16.25666667,0.271606445
16.26,0.267593384
16.26333333,0.25499471
16.26666667,0.332743327
16.27,0.315322876
16.27333333,0.294743856
16.27666667,0.297170003
16.28,0.299636841
16.28333333,0.309956868
16.28666667,0.314208984
16.29,0.331268311
16.29333333,0.329828898
16.29666667,0.337921143
16.3,0.305099487
16.30333333,0.344497681
16.30666667,0.272761027
16.31,0.268188477
16.31333333,0.25769043
16.31666667,0.250981649
16.32,0.255599976
16.32333333,0.238800049
16.32666667,0.202178955
16.33,0.194656372
16.33333333,0.262451172
16.33666667,0.244750977
16.34,0.236526489
16.34333333,0.256596883
16.34666667,0.163818359
16.35,0.13999939
16.35333333,0.146530151
16.35666667,0.166254679
16.36,0.155532837
16.36333333,0.174006144
16.36666667,0.168024699
16.37,0.157608032
16.37333333,0.185745239
16.37666667,0.149759928
16.38,0.188644409
16.38333333,0.252456665
16.38666667,0.16150411
16.39,0.150787354
16.39333333,0.194407145
16.39666667,0.148798625
16.4,0.204696655
16.40333333,0.1762441
16.40666667,0.164159139
16.41,0.139038086
16.41333333,0.138748169
16.41666667,0.137583415
16.42,0.107528687
16.42333333,0.126520793
16.42666667,0.167872111
16.43,0.134979248
16.43333333,0.109939575
16.43666667,0.155695597
16.44,0.164337158
16.44333333,0.14419047
16.44666667,0.184758504
16.45,0.196304321
16.45333333,0.198486328
16.45666667,0.165039063
16.46,0.160751343
16.46333333,0.19283549
16.46666667,0.163777669
16.47,0.147994995
16.47333333,0.15411377
16.47666667,0.150309245
16.48,0.12487793
16.48333333,0.12781779
16.48666667,0.169189453
16.49,0.143280029
16.49333333,0.168060303
16.49666667,0.181645711
16.5,0.170898438
16.50333333,0.174687703
16.50666667,0.208872477
16.51,0.206954956
16.51333333,0.141270955
16.51666667,0.198720296
16.52,0.216522217
16.52333333,0.196304321
16.52666667,0.21959432
16.53,0.200790405
16.53333333,0.182596842
16.53666667,0.19724528
16.54,0.193481445
16.54333333,0.151240031
16.54666667,0.164459229
16.55,0.185928345
16.55333333,0.215591431
16.55666667,0.214207967
16.56,0.248672485
16.56333333,0.223587036
16.56666667,0.216674805
16.57,0.226104736
16.57333333,0.175882975
16.57666667,0.180521647
16.58,0.221099854
16.58333333,0.260925293
16.58666667,0.272908529
16.59,0.241439819
16.59333333,0.223149618
16.59666667,0.227127075
16.6,0.211410522
16.60333333,0.208567301
16.60666667,0.236099243
16.61,0.226806641
16.61333333,0.271102905
16.61666667,0.280100505
16.62,0.278839111
16.62333333,0.249582926
16.62666667,0.236246745
16.63,0.296203613
16.63333333,0.265757243
16.63666667,0.274851481
16.64,0.240112305
16.64333333,0.260386149
16.64666667,0.325683594
16.65,0.284957886
16.65333333,0.275716146
16.65666667,0.263519287
16.66,0.263412476
16.66333333,0.275334676
16.66666667,0.266265869
16.67,0.286361694
16.67333333,0.265604655
16.67666667,0.287857056
16.68,0.252655029
16.68333333,0.260492961
16.68666667,0.306015015
16.69,0.206893921
16.69333333,0.219456991
16.69666667,0.186808268
16.7,0.196228027
16.70333333,0.235280355
16.70666667,0.228474935
16.71,0.207183838
16.71333333,0.217854818
16.71666667,0.20072937
16.72,0.198974609
16.72333333,0.207433065
16.72666667,0.167811076
16.73,0.186935425
16.73333333,0.209859212
16.73666667,0.184936523
16.74,0.192749023
16.74333333,0.239939372
16.74666667,0.264872233
16.75,0.327682495
16.75333333,0.352361043
16.75666667,0.401392619
16.76,0.476043701
16.76333333,0.441457113
16.76666667,0.455296834
16.77,0.426528931
16.77333333,0.329310099
16.77666667,0.287607829
16.78,0.242019653
16.78333333,0.140686035
16.78666667,0.048853556
16.79,-0.022445679
16.79333333,0.044743856
16.79666667,-0.006993612
16.8,-0.006790161
16.80333333,0.036804199
16.80666667,0.093068441
16.81,0.113433838
16.81333333,0.161758423
16.81666667,0.248769124
16.82,0.257568359
16.82333333,0.203999837
16.82666667,0.157424927
16.83,0.136169434
16.83333333,0.163269043
16.83666667,0.203659058
16.84,0.190917969
16.84333333,0.178476969
16.84666667,0.172856649
16.85,0.174484253
16.85333333,0.192047119
16.85666667,0.229705811
16.86,0.181930542
16.86333333,0.232950846
16.86666667,0.210240682
16.87,0.248153687
16.87333333,0.257624308
16.87666667,0.272969564
16.88,0.235961914
16.88333333,0.232925415
16.88666667,0.275919596
16.89,0.282012939
16.89333333,0.254776001
16.89666667,0.280838013
16.9,0.272369385
16.90333333,0.283320109
16.90666667,0.317474365
16.91,0.300994873
16.91333333,0.287399292
16.91666667,0.284322103
16.92,0.259033203
16.92333333,0.292404175
16.92666667,0.319351196
16.93,0.276947021
16.93333333,0.355097453
16.93666667,0.349782308
16.94,0.341156006
16.94333333,0.375411987
16.94666667,0.324513753
16.95,0.367736816
16.95333333,0.406397502
16.95666667,0.404093424
16.96,0.395111084
16.96333333,0.327143351
16.96666667,0.340805054
16.97,0.376266479
16.97333333,0.413391113
16.97666667,0.416763306
16.98,0.389038086
16.98333333,0.400517782
16.98666667,0.391657511
16.99,0.370239258
16.99333333,0.395563761
16.99666667,0.402582804
17,0.457000732
17.00333333,0.498163859
17.00666667,0.435496012
17.01,0.385894775
17.01333333,0.465413411
17.01666667,0.502726237
17.02,0.51550293
17.02333333,0.514851888
17.02666667,0.469558716
17.03,0.469894409
17.03333333,0.478464762
17.03666667,0.485616048
17.04,0.467498779
17.04333333,0.468170166
17.04666667,0.462977091
17.05,0.475234985
17.05333333,0.43023173
17.05666667,0.414464315
17.06,0.404266357
17.06333333,0.415985107
17.06666667,0.370559692
17.07,0.395278931
17.07333333,0.346913656
17.07666667,0.336196899
17.08,0.281600952
17.08333333,0.253041585
17.08666667,0.292943319
17.09,0.313735962
17.09333333,0.275487264
17.09666667,0.256963094
17.1,0.322494507
17.10333333,0.328180949
17.10666667,0.279612223
17.11,0.281799316
17.11333333,0.25797526
17.11666667,0.325571696
17.12,0.26864624
17.12333333,0.249252319
17.12666667,0.268671672
17.13,0.234161377
17.13333333,0.296936035
17.13666667,0.244735718
17.14,0.232315063
17.14333333,0.310724894
17.14666667,0.28595988
17.15,0.270385742
17.15333333,0.270314535
17.15666667,0.241114299
17.16,0.226852417
17.16333333,0.22072347
17.16666667,0.285339355
17.17,0.280029297
17.17333333,0.301427205
17.17666667,0.251027425
17.18,0.284866333
17.18333333,0.278879801
17.18666667,0.293477376
17.19,0.245056152
17.19333333,0.268961589
17.19666667,0.184275309
17.2,0.201873779
17.20333333,0.25579834
17.20666667,0.267171224
17.21,0.234970093
17.21333333,0.207682292
17.21666667,0.236358643
17.22,0.241607666
17.22333333,0.201014201
17.22666667,0.172566732
17.23,0.275405884
17.23333333,0.29973348
17.23666667,0.268915812
17.24,0.281784058
17.24333333,0.217234294
17.24666667,0.186589559
17.25,0.247955322
17.25333333,0.256520589
17.25666667,0.21673584
17.26,0.244338989
17.26333333,0.191762288
17.26666667,0.223770142
17.27,0.274917603
17.27333333,0.223485311
17.27666667,0.19501241
17.28,0.250320435
17.28333333,0.2247111
17.28666667,0.181243896
17.29,0.21156311
17.29333333,0.229359945
17.29666667,0.23046875
17.3,0.149993896
17.30333333,0.1796875
17.30666667,0.160624186
17.31,0.211242676
17.31333333,0.177179972
17.31666667,0.186055501
17.32,0.191162109
17.32333333,0.191040039
17.32666667,0.184463501
17.33,0.197891235
17.33333333,0.234476725
17.33666667,0.238525391
17.34,0.221115112
17.34333333,0.200617472
17.34666667,0.170344035
17.35,0.183258057
17.35333333,0.247095744
17.35666667,0.209014893
17.36,0.222457886
17.36333333,0.239013672
17.36666667,0.202891032
17.37,0.171783447
17.37333333,0.147979736
17.37666667,0.170430501
17.38,0.173980713
17.38333333,0.189565023
17.38666667,0.180791219
17.39,0.215591431
17.39333333,0.147750854
17.39666667,0.157124837
17.4,0.24810791
17.40333333,0.212504069
17.40666667,0.157836914
17.41,0.171508789
17.41333333,0.159154256
17.41666667,0.21794637
17.42,0.235321045
17.42333333,0.198659261
17.42666667,0.190460205
17.43,0.165161133
17.43333333,0.231552124
17.43666667,0.21866862
17.44,0.15234375
17.44333333,0.184382121
17.44666667,0.198933919
17.45,0.190963745
17.45333333,0.199732463
17.45666667,0.178197225
17.46,0.187789917
17.46333333,0.2240448
17.46666667,0.19182841
17.47,0.248077393
17.47333333,0.203964233
17.47666667,0.201497396
17.48,0.174682617
17.48333333,0.197016398
17.48666667,0.197580973
17.49,0.172195435
17.49333333,0.154139201
17.49666667,0.221964518
17.5,0.182342529
17.50333333,0.164388021
17.50666667,0.170613607
17.51,0.171707153
17.51333333,0.139297485
17.51666667,0.193812052
17.52,0.171035767
17.52333333,0.173650106
17.52666667,0.146474202
17.53,0.134140015
17.53333333,0.179468791
17.53666667,0.179112752
17.54,0.139633179
17.54333333,0.147679647
17.54666667,0.198216756
17.55,0.198669434
17.55333333,0.202789307
17.55666667,0.193135579
17.56,0.190811157
17.56333333,0.1633962
17.56666667,0.193456014
17.57,0.227035522
17.57333333,0.171656291
17.57666667,0.209070841
17.58,0.201919556
17.58333333,0.178654989
17.58666667,0.178146362
17.59,0.191452026
17.59333333,0.167948405
17.59666667,0.202733358
17.6,0.209197998
17.60333333,0.240244548
